AF-MATB V. 3.03
Programmed using MATLAB 7.5.0 and other Custom MATLAB Functions.

William Daniel Miller, Jr.
Air Force Research Laboratory
711th Human Performance Wing
Human Effectiveness Directorate
Applied Neuroscience Branch

RMS Center Coordinate (X,Y) is:	599.500000	565.500000	
Tracking Box X-Axis Lower Limit is:	449.500000	
Tracking Box X-Axis Upper Limit is:	749.500000	
Tracking Box Y-Axis Lower Limit is:	417.500000	
Tracking Box Y-Axis Upper Limit is:	717.500000	


Event Time	X Coordinates	Y Coordinates	X-Axis Difference	Y-Axis Difference	X-Axis Deviation	Y-Axis Deviation	Euclidian Distance From Target	X-Axis In Range?	y-Axis In Range?	Both In Range?
0.096783	601.391813	566.305252	1.891813	0.805252	3.578958	0.648432	2.056062	1.000000	1.000000	1.000000	
0.105261	603.283627	567.069945	3.783627	1.569945	14.315830	2.464727	4.096408	1.000000	1.000000	1.000000	
0.202539	605.175440	567.813837	5.675440	2.313837	32.210618	5.353843	6.128985	1.000000	1.000000	1.000000	
0.299516	607.067253	568.253010	7.567253	2.753010	57.263321	7.579063	8.052477	1.000000	1.000000	1.000000	
0.403172	608.959066	567.412982	9.459066	1.912982	89.473938	3.659501	9.650567	1.000000	1.000000	1.000000	
0.501965	610.850880	566.368075	11.350880	0.868075	128.842471	0.753554	11.384025	1.000000	1.000000	1.000000	
0.599613	612.742693	565.323167	13.242693	-0.176833	175.368919	0.031270	13.243874	1.000000	1.000000	1.000000	
0.702926	614.634506	564.278260	15.134506	-1.221740	229.053283	1.492649	15.183739	1.000000	1.000000	1.000000	
0.802268	616.526320	563.539112	17.026320	-1.960888	289.895561	3.845081	17.138863	1.000000	1.000000	1.000000	
0.902973	618.418133	563.267965	18.918133	-2.232035	357.895754	4.981982	19.049350	1.000000	1.000000	1.000000	
0.999532	620.309946	563.564657	20.809946	-1.935343	433.053862	3.745552	20.899747	1.000000	1.000000	1.000000	
1.102295	622.201760	564.003830	22.701760	-1.496170	515.369886	2.238526	22.751009	1.000000	1.000000	1.000000	
1.199650	624.093573	564.443002	24.593573	-1.056998	604.843824	1.117245	24.616277	1.000000	1.000000	1.000000	
1.303000	625.985386	564.882174	26.485386	-0.617826	701.475678	0.381708	26.492591	1.000000	1.000000	1.000000	
1.402338	627.877199	565.280787	28.377199	-0.219213	805.265446	0.048054	28.378046	1.000000	1.000000	1.000000	
1.503077	629.769013	566.390759	30.269013	0.890759	916.213130	0.793452	30.282117	1.000000	1.000000	1.000000	
1.602674	631.660826	568.129932	32.160826	2.629932	1034.318729	6.916541	32.268177	1.000000	1.000000	1.000000	
1.701827	633.552639	569.869104	34.052639	4.369104	1159.582243	19.089072	34.331783	1.000000	1.000000	1.000000	
1.803019	634.997253	571.608277	35.497253	6.108277	1260.054941	37.311045	36.018967	1.000000	1.000000	1.000000	
1.899317	635.994666	573.327689	36.494666	7.827689	1331.860638	61.272719	37.324702	1.000000	1.000000	1.000000	
2.001896	636.281759	575.066862	36.781759	9.566862	1352.897808	91.524843	38.005561	1.000000	1.000000	1.000000	
2.109226	636.609412	576.806034	37.109412	11.306034	1377.108494	127.826408	38.793490	1.000000	1.000000	1.000000	
2.199514	636.896506	578.281047	37.396506	12.781047	1398.498643	163.355152	39.520296	1.000000	1.000000	1.000000	
2.302264	637.224159	579.491899	37.724159	13.991899	1423.112177	195.773240	40.235375	1.000000	1.000000	1.000000	
2.400812	637.551812	580.540512	38.051812	15.040512	1447.940423	226.216987	40.916469	1.000000	1.000000	1.000000	
2.499676	637.838906	580.574084	38.338906	15.074084	1469.871686	227.228008	41.195870	1.000000	1.000000	1.000000	
2.602331	638.226879	579.570776	38.726879	14.070776	1499.771152	197.986750	41.203858	1.000000	1.000000	1.000000	
2.702756	638.655412	576.874349	39.155412	11.374349	1533.146307	129.375813	40.774037	1.000000	1.000000	1.000000	
2.799622	637.865066	572.668881	38.365066	7.168881	1471.878253	51.392860	39.029106	1.000000	1.000000	1.000000	
2.902096	636.933279	568.259574	37.433279	2.759574	1401.250363	7.615248	37.534859	1.000000	1.000000	1.000000	
3.002907	636.042052	563.809706	36.542052	-1.690294	1335.321573	2.857093	36.581124	1.000000	1.000000	1.000000	
3.099988	632.067799	558.088105	32.567799	-7.411895	1060.661505	54.936194	33.400564	1.000000	1.000000	1.000000	
3.202258	628.052985	552.325943	28.552985	-13.174057	815.272957	173.555783	31.445647	1.000000	1.000000	1.000000	
3.303191	624.038172	546.604341	24.538172	-18.895659	602.121863	357.045926	30.970434	1.000000	1.000000	1.000000	
3.399519	620.063918	540.842179	20.563918	-24.657821	422.874725	608.008120	32.107364	1.000000	1.000000	1.000000	
3.501860	616.089665	535.080018	16.589665	-30.419982	275.216969	925.375329	34.649564	1.000000	1.000000	1.000000	
3.602840	612.074851	529.358416	12.574851	-36.141584	158.126878	1306.214104	38.266709	1.000000	1.000000	1.000000	
3.699438	608.060037	523.636814	8.560037	-41.863186	73.274242	1752.526332	42.729388	1.000000	1.000000	1.000000	
3.801968	604.045224	517.915212	4.545224	-47.584788	20.659061	2264.312013	47.801371	1.000000	1.000000	1.000000	
3.902850	600.009610	512.153051	0.509610	-53.346949	0.259703	2845.897007	53.349383	1.000000	1.000000	1.000000	
3.999653	595.202317	509.326809	-4.297683	-56.173191	18.470080	3155.427399	56.337354	1.000000	1.000000	1.000000	
4.104905	591.471423	508.250887	-8.028577	-57.249113	64.458042	3277.460922	57.809333	1.000000	1.000000	1.000000	
4.199544	590.280210	507.622165	-9.219790	-57.877835	85.004530	3349.843737	58.607579	1.000000	1.000000	1.000000	
4.303332	589.090036	507.115124	-10.409964	-58.384876	108.367343	3408.793784	59.305658	1.000000	1.000000	1.000000	
4.402128	588.103703	506.648642	-11.396297	-58.851358	129.875589	3463.482347	59.944624	1.000000	1.000000	1.000000	
4.500493	587.117369	506.201920	-12.382631	-59.298080	153.329542	3516.262269	60.577156	1.000000	1.000000	1.000000	
4.612178	586.171596	505.755198	-13.328404	-59.744802	177.646358	3569.441312	61.213460	1.000000	1.000000	1.000000	
4.701766	585.185262	505.308477	-14.314738	-60.191523	204.911716	3623.019476	61.870277	1.000000	1.000000	1.000000	
4.803095	584.239489	504.841995	-15.260511	-60.658005	232.883203	3679.393574	62.548196	1.000000	1.000000	1.000000	
4.899335	583.253155	504.395273	-16.246845	-61.104727	263.959964	3733.787634	63.227744	1.000000	1.000000	1.000000	
5.002021	582.246022	503.948551	-17.253978	-61.551449	297.699766	3788.580814	63.924022	1.000000	1.000000	1.000000	
5.100139	581.238888	503.482070	-18.261112	-62.017930	333.468204	3846.223673	64.650537	1.000000	1.000000	1.000000	
5.199260	580.252555	503.015588	-19.247445	-62.484412	370.464151	3904.301742	65.381694	1.000000	1.000000	1.000000	
5.302063	579.347341	502.751906	-20.152659	-62.748094	406.129658	3937.323267	65.904878	1.000000	1.000000	1.000000	
5.399961	579.910608	504.559905	-19.589392	-60.940095	383.744292	3713.695236	64.011245	1.000000	1.000000	1.000000	
5.500600	580.840994	506.612303	-18.659006	-58.887697	348.158500	3467.760883	61.773128	1.000000	1.000000	1.000000	
5.599959	581.750581	507.851421	-17.749419	-57.648579	315.041888	3323.358656	60.319156	1.000000	1.000000	1.000000	
5.703485	582.558247	507.953819	-16.941753	-57.546181	287.022991	3311.562913	59.988215	1.000000	1.000000	1.000000	
5.799308	583.385674	507.751498	-16.114326	-57.748502	259.671516	3334.889534	59.954658	1.000000	1.000000	1.000000	
5.901919	584.193340	507.385896	-15.306660	-58.114104	234.293839	3377.249104	60.096114	1.000000	1.000000	1.000000	
5.999525	585.001007	507.041094	-14.498993	-58.458906	210.220811	3417.443681	60.230096	1.000000	1.000000	1.000000	
6.105488	586.216353	508.849092	-13.283647	-56.650908	176.455277	3209.325339	58.187461	1.000000	1.000000	1.000000	
6.201726	589.531460	512.668451	-9.968540	-52.831549	99.371800	2791.172612	53.763783	1.000000	1.000000	1.000000	
6.302832	592.765446	516.568929	-6.734554	-48.931071	45.354218	2394.249723	49.392347	1.000000	1.000000	1.000000	
6.399267	595.999432	520.469407	-3.500568	-45.030593	12.253973	2027.754295	45.166451	1.000000	1.000000	1.000000	
6.501851	597.602699	523.395405	-1.897301	-42.104595	3.599751	1772.796888	42.147321	1.000000	1.000000	1.000000	
6.600852	598.328205	525.467564	-1.171795	-40.032436	1.373103	1602.595961	40.049583	1.000000	1.000000	1.000000	
6.700460	599.013152	525.468042	-0.486848	-40.031958	0.237021	1602.557670	40.034918	1.000000	1.000000	1.000000	
6.801897	599.738658	525.102440	0.238658	-40.397560	0.056958	1631.962841	40.398265	1.000000	1.000000	1.000000	
6.902046	600.464165	524.696278	0.964165	-40.803722	0.929614	1664.943695	40.815111	1.000000	1.000000	1.000000	
6.999213	601.189671	524.290117	1.689671	-41.209883	2.854989	1698.254484	41.244508	1.000000	1.000000	1.000000	
7.102999	601.874618	523.883955	2.374618	-41.616045	5.638810	1731.895207	41.683738	1.000000	1.000000	1.000000	
7.199181	602.600124	523.477793	3.100124	-42.022207	9.610771	1765.865865	42.136405	1.000000	1.000000	1.000000	
7.302905	603.325631	523.071631	3.825631	-42.428369	14.635451	1800.166457	42.600492	1.000000	1.000000	1.000000	
7.403082	604.092737	522.665470	4.592737	-42.834530	21.093236	1834.796985	43.080044	1.000000	1.000000	1.000000	
7.499316	604.818244	522.259308	5.318244	-43.240692	28.283717	1869.757447	43.566514	1.000000	1.000000	1.000000	
7.602928	605.503190	521.853146	6.003190	-43.646854	36.038293	1905.047844	44.057759	1.000000	1.000000	1.000000	
7.702899	606.270297	521.406424	6.770297	-44.093576	45.836918	1944.243401	44.610316	1.000000	1.000000	1.000000	
7.802861	606.955243	521.000263	7.455243	-44.499737	55.580651	1980.226615	45.119921	1.000000	1.000000	1.000000	
7.899342	607.680750	520.594101	8.180750	-44.905899	66.924665	2016.539764	45.644983	1.000000	1.000000	1.000000	
8.003309	606.120216	520.548127	6.620216	-44.951873	43.827254	2020.670868	45.436749	1.000000	1.000000	1.000000	
8.100327	604.519121	520.502153	5.019121	-44.997847	25.191580	2024.806198	45.276901	1.000000	1.000000	1.000000	
8.203595	602.958587	520.456180	3.458587	-45.043820	11.961826	2028.945756	45.176405	1.000000	1.000000	1.000000	
8.303394	601.439653	520.450766	1.939653	-45.049234	3.762254	2029.433502	45.090972	1.000000	1.000000	1.000000	
8.399413	599.838559	520.649192	0.338559	-44.850808	0.114622	2011.594979	44.852086	1.000000	1.000000	1.000000	
8.499479	598.278025	520.867378	-1.221975	-44.632622	1.493223	1992.070930	44.649347	1.000000	1.000000	1.000000	
8.602881	596.473091	521.085564	-3.026909	-44.414436	9.162179	1972.642091	44.517460	1.000000	1.000000	1.000000	
8.699293	594.708717	521.344311	-4.791283	-44.155689	22.956396	1949.724908	44.414877	1.000000	1.000000	1.000000	
8.803122	592.903783	521.562497	-6.596217	-43.937503	43.510084	1930.504189	44.429880	1.000000	1.000000	1.000000	
8.903450	591.098848	522.593963	-8.401152	-42.906037	70.579347	1840.928013	43.720789	1.000000	1.000000	1.000000	
8.999464	589.232554	525.331029	-10.267446	-40.168971	105.420440	1613.546217	41.460423	1.000000	1.000000	1.000000	
9.103754	587.407860	528.555855	-12.092140	-36.944145	146.219844	1364.869822	38.872737	1.000000	1.000000	1.000000	
9.202863	585.602926	531.780682	-13.897074	-33.719318	193.128663	1136.992436	36.470825	1.000000	1.000000	1.000000	
9.303096	583.880152	535.005508	-15.619848	-30.494492	243.979652	929.914057	34.262132	1.000000	1.000000	1.000000	
9.399232	582.259298	537.783134	-17.240702	-27.716866	297.241810	768.224663	32.641484	1.000000	1.000000	1.000000	
9.503059	580.556284	540.419320	-18.943716	-25.080680	358.864386	629.040501	31.430954	1.000000	1.000000	1.000000	
9.614957	578.893830	542.892226	-20.606170	-22.607774	424.614258	511.111429	30.589634	1.000000	1.000000	1.000000	
9.699143	577.171055	544.735933	-22.328945	-20.764067	498.581763	431.146497	30.491446	1.000000	1.000000	1.000000	
9.802892	575.448281	545.868279	-24.051719	-19.631721	578.485169	385.404479	31.046572	1.000000	1.000000	1.000000	
9.903044	573.683907	546.736465	-25.816093	-18.763535	666.470645	352.070248	31.914587	1.000000	1.000000	1.000000	
10.001732	571.919533	547.625451	-27.580467	-17.874549	760.682153	319.499497	32.866117	1.000000	1.000000	1.000000	
10.105309	570.155159	548.493637	-29.344841	-17.006363	861.119693	289.216371	33.916605	1.000000	1.000000	1.000000	
10.199276	568.390785	549.361824	-31.109215	-16.138176	967.783265	260.440740	35.046027	1.000000	1.000000	1.000000	
10.303239	566.668011	550.230010	-32.831989	-15.269990	1077.939517	233.172603	36.209282	1.000000	1.000000	1.000000	
10.403175	564.863077	551.098196	-34.636923	-14.401804	1199.716460	207.411961	37.511710	1.000000	1.000000	1.000000	
10.500354	563.140303	551.702222	-36.359697	-13.797778	1322.027601	190.378674	38.889668	1.000000	1.000000	1.000000	
10.599196	561.335368	551.696808	-38.164632	-13.803192	1456.539105	190.528100	40.584076	1.000000	1.000000	1.000000	
10.699577	559.570994	551.691395	-39.929006	-13.808605	1594.325498	190.677585	42.249297	1.000000	1.000000	1.000000	
10.798254	557.806620	551.685981	-41.693380	-13.814019	1738.337923	190.827129	43.922261	1.000000	1.000000	1.000000	
10.898549	556.144166	552.473047	-43.355834	-13.026953	1879.728339	169.701507	45.270629	1.000000	1.000000	1.000000	
11.000874	554.829072	555.495073	-44.670928	-10.004927	1995.491816	100.098562	45.777619	1.000000	1.000000	1.000000	
11.098543	553.860298	559.044379	-45.639702	-6.455621	2082.982418	41.675039	46.094007	1.000000	1.000000	1.000000	
11.202201	552.891524	562.492806	-46.608476	-3.007194	2172.350066	9.043219	46.705388	1.000000	1.000000	1.000000	
11.298508	551.922750	565.372352	-47.577250	-0.127648	2263.594760	0.016294	47.577422	1.000000	1.000000	1.000000	
11.398262	550.933175	566.444378	-48.566825	0.944378	2358.736449	0.891850	48.576005	1.000000	1.000000	1.000000	
11.498774	549.821921	566.135284	-49.678079	0.635284	2467.911503	0.403586	49.682141	1.000000	1.000000	1.000000	
11.603950	548.791787	564.403470	-50.708213	-1.096530	2571.322847	1.202377	50.720067	1.000000	1.000000	1.000000	
11.702300	547.823013	560.795496	-51.676987	-4.704504	2670.510979	22.132353	51.890686	1.000000	1.000000	1.000000	
11.798227	546.854239	555.291603	-52.645761	-10.208397	2771.576157	104.211376	53.626370	1.000000	1.000000	1.000000	
11.900785	545.824105	549.380029	-53.675895	-16.119971	2881.101723	259.853469	56.044225	1.000000	1.000000	1.000000	
12.022366	546.119971	544.345175	-53.380029	-21.154825	2849.427528	447.526618	57.419110	1.000000	1.000000	1.000000	
12.098228	546.415837	540.839121	-53.084163	-24.660879	2817.928406	608.158940	58.532789	1.000000	1.000000	1.000000	
12.198358	546.568182	538.882667	-52.931818	-26.617333	2801.777308	708.482391	59.247445	1.000000	1.000000	1.000000	
12.298746	546.720528	537.252774	-52.779472	-28.247226	2785.672629	797.905796	59.862997	1.000000	1.000000	1.000000	
12.398837	546.689834	536.374800	-52.810166	-29.125200	2788.913610	848.277283	60.309128	1.000000	1.000000	1.000000	
12.498659	546.638340	536.187386	-52.861660	-29.312614	2794.355088	859.229336	60.444887	1.000000	1.000000	1.000000	
12.598464	546.607646	536.081092	-52.892354	-29.418908	2797.601115	865.472133	60.523328	1.000000	1.000000	1.000000	
12.699276	552.175976	538.164771	-47.324024	-27.335229	2239.563217	747.214728	54.651422	1.000000	1.000000	1.000000	
12.799543	557.663187	540.248450	-41.836813	-25.251550	1750.318950	637.640759	48.866755	1.000000	1.000000	1.000000	
12.898576	563.252317	542.332129	-36.247683	-23.167871	1313.894522	536.750227	43.019121	1.000000	1.000000	1.000000	
12.998237	568.780087	544.415808	-30.719913	-21.084192	943.713032	444.543133	37.259310	1.000000	1.000000	1.000000	
13.102125	574.369218	546.458928	-25.130782	-19.041072	631.556218	362.562441	31.529647	1.000000	1.000000	1.000000	
13.198621	579.896988	548.502047	-19.603012	-16.997953	384.278077	288.930421	25.946262	1.000000	1.000000	1.000000	
13.301714	585.424758	550.585726	-14.075242	-14.914274	198.112426	222.435580	20.507267	1.000000	1.000000	1.000000	
13.398230	590.993089	552.628845	-8.506911	-12.871155	72.367539	165.666639	15.428356	1.000000	1.000000	1.000000	
13.501874	596.480299	554.712524	-3.019701	-10.787476	9.118594	116.369644	11.202153	1.000000	1.000000	1.000000	
13.599186	602.048629	556.755643	2.548629	-8.744357	6.495512	76.463783	9.108199	1.000000	1.000000	1.000000	
13.700281	607.576400	558.798762	8.076400	-6.701238	65.228234	44.906593	10.494514	1.000000	1.000000	1.000000	
13.798222	613.165530	560.801321	13.665530	-4.698679	186.746714	22.077585	14.450754	1.000000	1.000000	1.000000	
13.901836	618.264820	562.437800	18.764820	-3.062200	352.118488	9.377069	19.013037	1.000000	1.000000	1.000000	
14.004166	623.160271	563.972359	23.660271	-1.527641	559.808416	2.333687	23.709536	1.000000	1.000000	1.000000	
14.098767	628.035961	565.548518	28.535961	0.048518	814.301081	0.002354	28.536002	1.000000	1.000000	1.000000	
14.201797	632.544532	567.022757	33.044532	1.522757	1091.941065	2.318789	33.079599	1.000000	1.000000	1.000000	
14.300927	635.564862	568.030036	36.064862	2.530036	1300.674263	6.401083	36.153497	1.000000	1.000000	1.000000	
14.401188	636.670552	568.468435	37.170552	2.968435	1381.649954	8.811608	37.288893	1.000000	1.000000	1.000000	
14.498574	637.390403	568.825714	37.890403	3.325714	1435.682608	11.060375	38.036075	1.000000	1.000000	1.000000	
14.598219	638.110253	569.223553	38.610253	3.723553	1490.751631	13.864849	38.789386	1.000000	1.000000	1.000000	
14.701827	638.870663	569.560032	39.370663	4.060032	1550.049127	16.483863	39.579452	1.000000	1.000000	1.000000	
14.798251	639.651874	569.855951	40.151874	4.355951	1612.172956	18.974313	40.387464	1.000000	1.000000	1.000000	
14.900753	640.433084	570.253790	40.933084	4.753790	1675.517364	22.598524	41.208202	1.000000	1.000000	1.000000	
15.012387	641.214294	570.651630	41.714294	5.151630	1740.082351	26.539287	42.031198	1.000000	1.000000	1.000000	
15.098703	641.995505	571.049469	42.495505	5.549469	1805.867917	30.796601	42.856324	1.000000	1.000000	1.000000	
15.200350	642.919195	571.406748	43.419195	5.906748	1885.226496	34.889668	43.819130	1.000000	1.000000	1.000000	
15.301698	643.842885	571.804587	44.342885	6.304587	1966.291483	39.747813	44.788830	1.000000	1.000000	1.000000	
15.398468	644.847696	572.161866	45.347696	6.661866	2056.413507	44.380455	45.834419	1.000000	1.000000	1.000000	
15.500542	645.811946	572.519145	46.311946	7.019145	2144.796348	49.268394	46.840845	1.000000	1.000000	1.000000	
15.601059	646.695076	572.876424	47.195076	7.376424	2227.375237	54.411629	47.768053	1.000000	1.000000	1.000000	
15.698143	647.618767	573.274263	48.118767	7.774263	2315.415714	60.439164	48.742742	1.000000	1.000000	1.000000	
15.798281	648.501897	573.631542	49.001897	8.131542	2401.185920	66.121974	49.672003	1.000000	1.000000	1.000000	
15.898625	649.425587	573.988821	49.925587	8.488821	2492.564283	72.060082	50.642120	1.000000	1.000000	1.000000	
15.999173	650.349278	574.386660	50.849278	8.886660	2585.649053	78.972727	51.619975	1.000000	1.000000	1.000000	
16.101139	651.272968	574.743939	51.772968	9.243939	2680.440231	85.450410	52.591735	1.000000	1.000000	1.000000	
16.198365	652.196658	575.101218	52.696658	9.601218	2776.937817	92.183390	53.564178	1.000000	1.000000	1.000000	
16.297294	653.160909	575.437697	53.660909	9.937697	2879.493138	98.757826	54.573354	1.000000	1.000000	1.000000	
16.400738	654.125159	575.835536	54.625159	10.335536	2983.908017	106.823310	55.594346	1.000000	1.000000	1.000000	
16.501920	655.048850	576.273935	55.548850	10.773935	3085.674686	116.077682	56.584029	1.000000	1.000000	1.000000	
16.598203	656.013100	576.732094	56.513100	11.232094	3193.730459	126.159944	57.618490	1.000000	1.000000	1.000000	
16.700774	656.977350	577.170493	57.477350	11.670493	3303.645791	136.200417	58.650202	1.000000	1.000000	1.000000	
16.802258	657.901041	577.628652	58.401041	12.128652	3410.681542	147.104211	59.647177	1.000000	1.000000	1.000000	
16.898285	658.824731	578.269852	59.324731	12.769852	3519.423701	163.069108	60.683546	1.000000	1.000000	1.000000	
16.999309	659.707861	579.317691	60.207861	13.817691	3624.986560	190.928573	61.773094	1.000000	1.000000	1.000000	
