AF-MATB V. 3.03
Programmed using MATLAB 7.5.0 and other Custom MATLAB Functions.

William Daniel Miller, Jr.
Air Force Research Laboratory
711th Human Performance Wing
Human Effectiveness Directorate
Applied Neuroscience Branch

RMS Center Coordinate (X,Y) is:	599.500000	565.500000	
Tracking Box X-Axis Lower Limit is:	449.500000	
Tracking Box X-Axis Upper Limit is:	749.500000	
Tracking Box Y-Axis Lower Limit is:	417.500000	
Tracking Box Y-Axis Upper Limit is:	717.500000	


Event Time	X Coordinates	Y Coordinates	X-Axis Difference	Y-Axis Difference	X-Axis Deviation	Y-Axis Deviation	Euclidian Distance From Target	X-Axis In Range?	y-Axis In Range?	Both In Range?
0.099853	601.135485	568.593277	1.635485	3.093277	2.674813	9.568360	3.499025	1.000000	1.000000	1.000000	
0.106874	602.770971	571.686553	3.270971	6.186553	10.699251	38.273439	6.998049	1.000000	1.000000	1.000000	
0.202277	604.406456	574.760070	4.906456	9.260070	24.073314	85.748890	10.479609	1.000000	1.000000	1.000000	
0.299016	606.041942	577.853346	6.541942	12.353346	42.797003	152.605163	13.978632	1.000000	1.000000	1.000000	
0.402246	607.677427	580.926863	8.177427	15.426863	66.870317	237.988095	17.460195	1.000000	1.000000	1.000000	
0.502212	609.312913	584.000379	9.812913	18.500379	96.293257	342.264035	20.941760	1.000000	1.000000	1.000000	
0.598629	610.968158	587.073896	11.468158	21.573896	131.518653	465.432983	24.432594	1.000000	1.000000	1.000000	
0.698843	612.623404	590.147412	13.123404	24.647412	172.223724	607.494940	27.923443	1.000000	1.000000	1.000000	
0.801927	614.258889	593.220929	14.758889	27.720929	217.824808	768.449904	31.405011	1.000000	1.000000	1.000000	
0.898759	615.894375	596.294446	16.394375	30.794446	268.775518	948.297876	34.886579	1.000000	1.000000	1.000000	
0.998565	617.570420	599.387722	18.070420	33.887722	326.540080	1148.377709	38.404658	1.000000	1.000000	1.000000	
1.102309	619.225665	602.461239	19.725665	36.961239	389.101879	1366.133163	41.895525	1.000000	1.000000	1.000000	
1.198508	620.840351	605.534755	21.340351	40.034755	455.410579	1602.781624	45.367303	1.000000	1.000000	1.000000	
1.302085	622.455036	608.608272	22.955036	43.108272	526.933697	1858.323094	48.839091	1.000000	1.000000	1.000000	
1.401969	624.048922	611.701548	24.548922	46.201548	602.649565	2134.583067	52.318569	1.000000	1.000000	1.000000	
1.498636	625.602247	614.692905	26.102247	49.192905	681.327316	2419.941889	55.689040	1.000000	1.000000	1.000000	
1.598601	627.053653	617.378501	27.553653	51.878501	759.203782	2691.378910	58.741661	1.000000	1.000000	1.000000	
1.702140	627.608578	618.045458	28.108578	52.545458	790.092171	2761.025154	59.591252	1.000000	1.000000	1.000000	
1.798675	627.613344	616.958975	28.113344	51.458975	790.360094	2648.026060	58.637754	1.000000	1.000000	1.000000	
1.898687	627.415309	615.424251	27.915309	49.924251	779.264486	2492.430846	57.198735	1.000000	1.000000	1.000000	
2.015526	627.196475	613.910328	27.696475	48.410328	767.094707	2343.559822	55.773242	1.000000	1.000000	1.000000	
2.098710	626.977640	612.375604	27.477640	46.875604	755.020704	2197.322268	54.335467	1.000000	1.000000	1.000000	
2.198640	626.656886	610.820081	27.156886	45.320081	737.496432	2053.909719	52.833760	1.000000	1.000000	1.000000	
2.302064	625.016371	609.285357	25.516371	43.785357	651.085189	1917.157514	50.677832	1.000000	1.000000	1.000000	
2.398603	621.954176	607.750634	22.454176	42.250634	504.190040	1785.116061	47.846694	1.000000	1.000000	1.000000	
2.498679	618.790062	606.379190	19.290062	40.879190	372.106489	1671.108209	45.201932	1.000000	1.000000	1.000000	
2.601277	615.259867	605.721187	15.759867	40.221187	248.373420	1617.743881	43.198580	1.000000	1.000000	1.000000	
2.699293	611.384393	605.858784	11.884393	40.358784	141.238793	1628.831407	42.072202	1.000000	1.000000	1.000000	
2.798630	607.508918	606.423820	8.008918	40.923820	64.142772	1674.759049	41.700142	1.000000	1.000000	1.000000	
2.902079	603.837284	607.192697	4.337284	41.692697	18.812030	1738.280952	41.917693	1.000000	1.000000	1.000000	
2.998505	603.618449	607.961573	4.118449	42.461573	16.961624	1802.985197	42.660835	1.000000	1.000000	1.000000	
3.102252	603.826015	608.730450	4.326015	43.230450	18.714403	1868.871784	43.446360	1.000000	1.000000	1.000000	
3.201805	604.033580	609.439006	4.533580	43.939006	20.553349	1930.636274	44.172272	1.000000	1.000000	1.000000	
3.301897	604.261946	609.555803	4.761946	44.055803	22.676126	1940.913764	44.312412	1.000000	1.000000	1.000000	
3.398782	604.449751	608.509879	4.949751	43.009879	24.500035	1849.849726	43.293761	1.000000	1.000000	1.000000	
3.501908	604.637556	606.159796	5.137556	40.659796	26.394487	1653.219007	40.983088	1.000000	1.000000	1.000000	
3.598770	604.784802	602.789473	5.284802	37.289473	27.929132	1390.504760	37.662102	1.000000	1.000000	1.000000	
3.698549	604.870687	599.215309	5.370687	33.715309	28.844283	1136.722065	34.140392	1.000000	1.000000	1.000000	
3.802116	604.956573	594.764426	5.456573	29.264426	29.774187	856.406607	29.768789	1.000000	1.000000	1.000000	
3.898772	604.981098	589.477382	5.481098	23.977382	30.042439	574.914856	24.595880	1.000000	1.000000	1.000000	
4.006672	605.005624	584.109219	5.505624	18.609219	30.311893	346.303021	19.406569	1.000000	1.000000	1.000000	
4.102165	604.665109	579.760255	5.165109	14.260255	26.678354	203.354881	15.166847	1.000000	1.000000	1.000000	
4.198508	603.227395	577.593212	3.727395	12.093212	13.893471	146.245772	12.654614	1.000000	1.000000	1.000000	
4.302266	601.851040	577.200408	2.351040	11.700408	5.527390	136.899556	11.934276	1.000000	1.000000	1.000000	
4.402195	600.941646	577.969285	1.441646	12.469285	2.078342	155.483067	12.552347	1.000000	1.000000	1.000000	
4.498525	600.052011	578.922241	0.552011	13.422241	0.304716	180.156567	13.433588	1.000000	1.000000	1.000000	
4.611186	599.142617	579.894958	-0.357383	14.394958	0.127723	207.214817	14.399394	1.000000	1.000000	1.000000	
4.698492	598.252982	580.867675	-1.247018	15.367675	1.555054	236.165423	15.418187	1.000000	1.000000	1.000000	
4.802448	596.333467	582.301091	-3.166533	16.801091	10.026930	282.276670	17.096889	1.000000	1.000000	1.000000	
4.898818	594.434752	583.755308	-5.065248	18.255308	25.656733	333.256273	18.945000	1.000000	1.000000	1.000000	
5.002472	592.536038	585.209525	-6.963962	19.709525	48.496772	388.465369	20.903639	1.000000	1.000000	1.000000	
5.099177	590.637323	586.642942	-8.862677	21.142942	78.547047	447.023978	22.925336	1.000000	1.000000	1.000000	
5.198526	588.738608	588.116918	-10.761392	22.616918	115.807558	511.524994	25.046608	1.000000	1.000000	1.000000	
5.301953	586.839893	589.590895	-12.660107	24.090895	160.278304	580.371224	27.214877	1.000000	1.000000	1.000000	
5.398430	584.981738	591.045112	-14.518262	25.545112	210.779920	652.552736	29.382523	1.000000	1.000000	1.000000	
5.498521	583.083024	592.499329	-16.416976	26.999329	269.517114	728.963741	31.598748	1.000000	1.000000	1.000000	
5.601870	581.224869	593.953545	-18.275131	28.453545	333.980420	809.604238	33.816929	1.000000	1.000000	1.000000	
5.698455	579.345914	595.427522	-20.154086	29.927522	406.187182	895.656573	36.081072	1.000000	1.000000	1.000000	
5.798497	577.466959	596.881739	-22.033041	31.381739	485.454886	984.813527	38.344079	1.000000	1.000000	1.000000	
5.898621	575.588004	598.355715	-23.911996	32.855715	571.783533	1079.498040	40.635964	1.000000	1.000000	1.000000	
6.015286	573.689290	599.809932	-25.810710	34.309932	666.192771	1177.171450	42.934418	1.000000	1.000000	1.000000	
6.098485	571.831135	601.264149	-27.668865	35.764149	765.566101	1279.074351	45.217701	1.000000	1.000000	1.000000	
6.202278	569.932420	602.718366	-29.567580	37.218366	874.241786	1385.206746	47.533657	1.000000	1.000000	1.000000	
6.298597	568.074265	604.172582	-31.425735	38.672582	987.576807	1495.568633	49.831169	1.000000	1.000000	1.000000	
6.398677	566.175550	605.646559	-33.324450	40.146559	1110.518940	1611.746215	52.175331	1.000000	1.000000	1.000000	
6.498360	564.276836	607.100776	-35.223164	41.600776	1240.671309	1730.624558	54.509594	1.000000	1.000000	1.000000	
6.598398	562.397881	608.534193	-37.102119	43.034193	1376.567248	1851.941739	56.819970	1.000000	1.000000	1.000000	
6.698365	560.499166	609.967609	-39.000834	44.467609	1521.065051	1977.368287	59.147556	1.000000	1.000000	1.000000	
6.802130	558.620211	611.360466	-40.879789	45.860466	1671.157130	2103.182356	61.435653	1.000000	1.000000	1.000000	
6.899141	556.741256	612.814683	-42.758744	47.314683	1828.310152	2238.679217	63.772952	1.000000	1.000000	1.000000	
6.998544	554.883102	614.268900	-44.616898	48.768900	1990.667621	2378.405571	66.098965	1.000000	1.000000	1.000000	
7.102166	553.004147	615.723116	-46.495853	50.223116	2161.864362	2522.361418	68.441404	1.000000	1.000000	1.000000	
7.198463	551.125192	617.156533	-48.374808	51.656533	2340.122046	2668.397413	70.770894	1.000000	1.000000	1.000000	
7.298495	549.246237	618.589950	-50.253763	53.089950	2525.440673	2818.542776	73.102554	1.000000	1.000000	1.000000	
7.402126	547.388082	620.023367	-52.111918	54.523367	2715.651953	2972.797505	75.421810	1.000000	1.000000	1.000000	
7.498752	545.509128	621.477583	-53.990872	55.977583	2915.014299	3133.489836	77.772130	1.000000	1.000000	1.000000	
7.598547	543.610413	622.931800	-55.889587	57.431800	3123.645954	3298.411660	80.137742	1.000000	1.000000	1.000000	
7.701989	541.731458	624.405777	-57.768542	58.905777	3337.204441	3469.890542	82.505121	1.000000	1.000000	1.000000	
7.798487	540.259143	625.859994	-59.240857	60.359994	3509.479110	3643.328822	84.574275	1.000000	1.000000	1.000000	
7.902222	539.619868	627.252850	-59.880132	61.752850	3585.630156	3813.414520	86.017700	1.000000	1.000000	1.000000	
8.020818	538.980594	628.686267	-60.519406	63.186267	3662.598546	3992.504342	87.493445	1.000000	1.000000	1.000000	
8.099102	541.589628	623.548271	-57.910372	58.048271	3353.611159	3369.601752	81.995201	1.000000	1.000000	1.000000	
8.198477	545.422743	618.083715	-54.077257	52.583715	2924.349745	2765.047055	75.428090	1.000000	1.000000	1.000000	
8.302327	549.235057	612.619159	-50.264943	47.119159	2526.564455	2220.215105	68.896876	1.000000	1.000000	1.000000	
8.398502	553.068172	607.154602	-46.431828	41.654602	2155.914653	1735.105903	62.378045	1.000000	1.000000	1.000000	
8.498547	556.901287	601.690046	-42.598713	36.190046	1814.650386	1309.719448	55.896063	1.000000	1.000000	1.000000	
8.602169	560.734401	596.225490	-38.765599	30.725490	1502.771654	944.055742	49.465416	1.000000	1.000000	1.000000	
8.698476	564.567516	590.760934	-34.932484	25.260934	1220.278456	638.114784	43.109085	1.000000	1.000000	1.000000	
8.798533	568.441190	585.255818	-31.058810	19.755818	964.649658	390.292337	36.809537	1.000000	1.000000	1.000000	
8.902009	572.314865	579.791262	-27.185135	14.291262	739.031570	204.240159	30.712729	1.000000	1.000000	1.000000	
8.998767	576.147980	574.266385	-23.352020	8.766385	545.316861	76.849514	24.943263	1.000000	1.000000	1.000000	
9.098489	579.981094	568.801829	-19.518906	3.301829	380.987688	10.902077	19.796206	1.000000	1.000000	1.000000	
9.201937	583.793409	563.296713	-15.706591	-2.203287	246.697011	4.854473	15.860375	1.000000	1.000000	1.000000	
9.298481	587.218843	557.832157	-12.281157	-7.667843	150.826811	58.795816	14.478350	1.000000	1.000000	1.000000	
9.398491	590.623478	552.367601	-8.876522	-13.132399	78.792646	172.459907	15.850948	1.000000	1.000000	1.000000	
9.501817	593.762912	546.903045	-5.737088	-18.596955	32.914174	345.846746	19.461781	1.000000	1.000000	1.000000	
9.598742	596.168107	541.622569	-3.331893	-23.877431	11.101511	570.131732	24.108779	1.000000	1.000000	1.000000	
9.698498	598.410022	537.768972	-1.089978	-27.731028	1.188053	769.009892	27.752440	1.000000	1.000000	1.000000	
9.802081	600.713296	534.119216	1.213296	-31.380784	1.472088	984.753589	31.404230	1.000000	1.000000	1.000000	
9.898336	603.016571	531.285860	3.516571	-34.214140	12.366270	1170.607370	34.394384	1.000000	1.000000	1.000000	
10.007093	605.319845	528.737464	5.819845	-36.762536	33.870600	1351.484058	37.220353	1.000000	1.000000	1.000000	
10.098568	607.623120	526.636268	8.123120	-38.863732	65.985078	1510.389682	39.703586	1.000000	1.000000	1.000000	
10.202345	609.906635	525.123712	10.406635	-40.376288	108.298042	1630.244663	41.695836	1.000000	1.000000	1.000000	
10.298468	606.802648	528.100854	7.302648	-37.399146	53.328675	1398.696088	38.105443	1.000000	1.000000	1.000000	
10.402137	603.698662	531.037437	4.198662	-34.462563	17.628766	1187.668230	34.717388	1.000000	1.000000	1.000000	
10.498412	600.614436	533.974020	1.114436	-31.525980	1.241968	993.887409	31.545671	1.000000	1.000000	1.000000	
10.598541	597.510450	536.910603	-1.989550	-28.589397	3.958308	817.353626	28.658540	1.000000	1.000000	1.000000	
10.702514	594.406464	539.907506	-5.093536	-25.592494	25.944106	654.975762	26.094441	1.000000	1.000000	1.000000	
10.798573	591.261918	542.925209	-8.238082	-22.574791	67.865991	509.621208	24.030963	1.000000	1.000000	1.000000	
10.898650	589.115772	545.922111	-10.384228	-19.577889	107.832187	383.293722	22.161361	1.000000	1.000000	1.000000	
11.002026	587.296186	548.919014	-12.203814	-16.580986	148.933072	274.929090	20.587913	1.000000	1.000000	1.000000	
11.098624	586.007000	551.611197	-13.493000	-13.888803	182.061046	192.898848	19.363881	1.000000	1.000000	1.000000	
11.198512	584.900854	554.243060	-14.599146	-11.256940	213.135062	126.718701	18.435123	1.000000	1.000000	1.000000	
11.309810	583.773908	556.874923	-15.726092	-8.625077	247.309968	74.391959	17.936051	1.000000	1.000000	1.000000	
11.398515	582.627202	559.506786	-16.872798	-5.993214	284.691313	35.918620	17.905584	1.000000	1.000000	1.000000	
11.502003	581.439936	562.117848	-18.060064	-3.382152	326.165914	11.438950	18.374027	1.000000	1.000000	1.000000	
11.601882	579.660910	564.728911	-19.839090	-0.771089	393.589496	0.594578	19.854069	1.000000	1.000000	1.000000	
11.698509	577.922444	567.339974	-21.577556	1.839974	465.590929	3.385504	21.655864	1.000000	1.000000	1.000000	
11.798768	576.266138	569.808557	-23.233862	4.308557	539.812352	18.563662	23.629981	1.000000	1.000000	1.000000	
11.902464	575.934792	571.891300	-23.565208	6.391300	555.319039	40.848711	24.416547	1.000000	1.000000	1.000000	
12.012114	577.744806	573.445722	-21.755194	7.945722	473.288478	63.134505	23.160807	1.000000	1.000000	1.000000	
12.099338	579.656740	575.000145	-19.843260	9.500145	393.754980	90.252760	22.000176	1.000000	1.000000	1.000000	
12.201982	581.528114	576.554568	-17.971886	11.054568	322.988700	122.203476	21.099578	1.000000	1.000000	1.000000	
12.298429	583.236208	578.108991	-16.263792	12.608991	264.510944	158.986652	20.579057	1.000000	1.000000	1.000000	
12.399359	584.882942	579.663414	-14.617058	14.163414	213.658398	200.602289	20.353395	1.000000	1.000000	1.000000	
12.501061	586.508875	581.217837	-12.991125	15.717837	168.769316	247.050387	20.391658	1.000000	1.000000	1.000000	
12.598528	587.767689	582.628739	-11.732311	17.128739	137.647111	293.393713	20.761523	1.000000	1.000000	1.000000	
12.702379	587.253303	583.774442	-12.246697	18.274442	149.981578	333.955238	21.998564	1.000000	1.000000	1.000000	
12.798598	585.310997	584.940945	-14.189003	19.440945	201.327796	377.950344	24.068198	1.000000	1.000000	1.000000	
12.902457	583.328131	586.107448	-16.171869	20.607448	261.529337	424.666908	26.195348	1.000000	1.000000	1.000000	
12.999909	581.324465	587.273951	-18.175535	21.773951	330.350063	474.104929	28.362916	1.000000	1.000000	1.000000	
13.102163	579.912559	588.440454	-19.587441	22.940454	383.667836	526.264408	30.165083	1.000000	1.000000	1.000000	
13.198424	581.375213	589.117116	-18.124787	23.617116	328.507897	557.768184	29.770389	1.000000	1.000000	1.000000	
13.299351	583.021947	589.753219	-16.478053	24.253219	271.526226	588.218640	29.321406	1.000000	1.000000	1.000000	
13.402038	584.668681	590.389322	-14.831319	24.889322	219.968021	619.478349	28.973201	1.000000	1.000000	1.000000	
13.498833	586.315415	591.086785	-13.184585	25.586785	173.833281	654.683557	28.783968	1.000000	1.000000	1.000000	
13.599266	587.962149	591.722888	-11.537851	26.222888	133.122006	687.639836	28.648941	1.000000	1.000000	1.000000	
13.701869	589.649443	592.339230	-9.850557	26.839230	97.033474	720.344292	28.589819	1.000000	1.000000	1.000000	
13.798393	591.275377	592.975333	-8.224623	27.475333	67.644425	754.893939	28.679930	1.000000	1.000000	1.000000	
13.899224	592.922111	593.611436	-6.577889	28.111436	43.268626	790.252840	28.870772	1.000000	1.000000	1.000000	
14.010915	594.568845	594.247539	-4.931155	28.747539	24.316291	826.420995	29.167401	1.000000	1.000000	1.000000	
14.098676	596.194779	594.924202	-3.305221	29.424202	10.924487	865.783649	29.609258	1.000000	1.000000	1.000000	
14.199328	597.861273	595.540545	-1.638727	30.040545	2.685427	902.434319	30.085208	1.000000	1.000000	1.000000	
14.301853	599.508007	595.870887	0.008007	30.370887	0.000064	922.390802	30.370888	1.000000	1.000000	1.000000	
14.398565	601.195301	596.037950	1.695301	30.537950	2.874044	932.566404	30.584971	1.000000	1.000000	1.000000	
14.499571	602.821235	595.858693	3.321235	30.358693	11.030599	921.650244	30.539824	1.000000	1.000000	1.000000	
14.601913	604.467969	595.475596	4.967969	29.975596	24.680711	898.536348	30.384487	1.000000	1.000000	1.000000	
14.698471	605.482382	595.113299	5.982382	29.613299	35.788900	876.947460	30.211527	1.000000	1.000000	1.000000	
14.799374	606.027756	594.709402	6.527756	29.209402	42.611604	853.189137	29.929931	1.000000	1.000000	1.000000	
14.902043	606.492010	594.347104	6.992010	28.847104	48.888209	832.155429	29.682379	1.000000	1.000000	1.000000	
15.002297	606.833544	593.984807	7.333544	28.484807	53.780873	811.384240	29.413689	1.000000	1.000000	1.000000	
15.099802	608.157517	593.558514	8.657517	28.058514	74.952599	787.280183	29.363801	1.000000	1.000000	1.000000	
15.201929	609.523089	593.111420	10.023089	27.611420	100.462323	762.390511	29.374357	1.000000	1.000000	1.000000	
15.298969	610.847062	592.685126	11.347062	27.185126	128.755817	739.031093	29.458223	1.000000	1.000000	1.000000	
15.399982	612.171035	592.503233	12.671035	27.003233	160.555118	729.174576	29.828337	1.000000	1.000000	1.000000	
15.502255	613.495007	593.015019	13.995007	27.515019	195.860226	757.076275	30.869670	1.000000	1.000000	1.000000	
15.598371	614.839780	593.588165	15.339780	28.088165	235.308843	788.945039	32.003967	1.000000	1.000000	1.000000	
15.701988	616.163752	594.221632	16.663752	28.721632	277.680641	824.932136	33.205614	1.000000	1.000000	1.000000	
15.801963	617.508525	594.875898	18.008525	29.375898	324.306969	862.943396	34.456500	1.000000	1.000000	1.000000	
15.898646	618.832497	595.611285	19.332497	30.111285	373.745458	906.689460	35.783165	1.000000	1.000000	1.000000	
16.006013	619.769590	596.571311	20.269590	31.071311	410.856279	965.426366	37.098284	1.000000	1.000000	1.000000	
16.101182	620.054603	597.673817	20.554603	32.173817	422.491687	1035.154524	38.179133	1.000000	1.000000	1.000000	
16.197376	620.257455	598.797124	20.757455	33.297124	430.871944	1108.698450	39.237360	1.000000	1.000000	1.000000	
16.297464	620.297028	599.941230	20.797028	34.441230	432.516362	1186.198333	40.233254	1.000000	1.000000	1.000000	
16.400836	619.990280	601.085337	20.490280	35.585337	419.851586	1266.316175	41.062973	1.000000	1.000000	1.000000	
16.497352	619.724093	602.208643	20.224093	36.708643	409.013932	1347.524463	41.911077	1.000000	1.000000	1.000000	
16.601050	619.417345	603.352749	19.917345	37.852749	396.700648	1432.830628	42.773020	1.000000	1.000000	1.000000	
16.700859	619.131398	604.476056	19.631398	38.976056	385.391787	1519.132914	43.640860	1.000000	1.000000	1.000000	
16.797324	618.947371	605.620162	19.447371	40.120162	378.200221	1609.627402	44.585061	1.000000	1.000000	1.000000	
16.897368	618.721743	606.743468	19.221743	41.243468	369.475408	1701.023687	45.502737	1.000000	1.000000	1.000000	
17.000966	618.455556	607.887575	18.955556	42.387575	359.313091	1796.706497	46.432958	1.000000	1.000000	1.000000	
