AF-MATB V. 3.03
Programmed using MATLAB 7.5.0 and other Custom MATLAB Functions.

William Daniel Miller, Jr.
Air Force Research Laboratory
711th Human Performance Wing
Human Effectiveness Directorate
Applied Neuroscience Branch

RMS Center Coordinate (X,Y) is:	599.500000	565.500000	
Tracking Box X-Axis Lower Limit is:	449.500000	
Tracking Box X-Axis Upper Limit is:	749.500000	
Tracking Box Y-Axis Lower Limit is:	417.500000	
Tracking Box Y-Axis Upper Limit is:	717.500000	


Event Time	X Coordinates	Y Coordinates	X-Axis Difference	Y-Axis Difference	X-Axis Deviation	Y-Axis Deviation	Euclidian Distance From Target	X-Axis In Range?	y-Axis In Range?	Both In Range?
0.105961	597.222082	563.845829	-2.277918	-1.654171	5.188909	2.736282	2.815172	1.000000	1.000000	1.000000	
0.113161	594.984724	562.191658	-4.515276	-3.308342	20.387714	10.945127	5.597575	1.000000	1.000000	1.000000	
0.198868	592.706807	560.537487	-6.793193	-4.962513	46.147476	24.626536	8.412729	1.000000	1.000000	1.000000	
0.298427	590.428889	558.883316	-9.071111	-6.616684	82.285058	43.780509	11.227892	1.000000	1.000000	1.000000	
0.401973	588.130171	557.229145	-11.369829	-8.270855	129.273010	68.407045	14.059874	1.000000	1.000000	1.000000	
0.498288	585.852253	555.574974	-13.647747	-9.925026	186.260991	98.506145	16.875045	1.000000	1.000000	1.000000	
0.601747	583.574335	553.920803	-15.925665	-11.579197	253.626791	134.077808	19.690216	1.000000	1.000000	1.000000	
0.698464	581.296418	552.266632	-18.203582	-13.233368	331.370410	175.122035	22.505387	1.000000	1.000000	1.000000	
0.798365	579.059060	550.612461	-20.440940	-14.887539	417.832033	221.638826	25.287761	1.000000	1.000000	1.000000	
0.897549	576.760342	548.958290	-22.739658	-16.541710	517.092042	273.628180	28.119748	1.000000	1.000000	1.000000	
1.001957	574.482424	547.304119	-25.017576	-18.195881	625.879094	331.090098	30.934919	1.000000	1.000000	1.000000	
1.098517	572.204507	545.649948	-27.295493	-19.850052	745.043965	394.024579	33.750090	1.000000	1.000000	1.000000	
1.201798	569.865229	543.873057	-29.634771	-21.626943	878.219669	467.724681	36.687114	1.000000	1.000000	1.000000	
1.298227	567.525951	541.729046	-31.974049	-23.770954	1022.339814	565.058275	39.842165	1.000000	1.000000	1.000000	
1.401973	565.146113	539.544475	-34.353887	-25.955525	1180.189543	673.689302	43.056693	1.000000	1.000000	1.000000	
1.501807	562.765235	537.359903	-36.734765	-28.140097	1349.442934	791.865031	46.274269	1.000000	1.000000	1.000000	
1.598542	560.384358	535.256452	-39.115642	-30.243548	1530.033484	914.672167	49.443965	1.000000	1.000000	1.000000	
1.702063	558.003480	533.112441	-41.496520	-32.387559	1721.961192	1048.953950	52.639483	1.000000	1.000000	1.000000	
1.802503	555.622602	530.968430	-43.877398	-34.531570	1925.226058	1192.429299	55.835968	1.000000	1.000000	1.000000	
1.898924	553.241724	528.824419	-46.258276	-36.675581	2139.828082	1345.098214	59.033264	1.000000	1.000000	1.000000	
1.998339	550.860846	527.128648	-48.639154	-38.371352	2365.767264	1472.360628	61.952626	1.000000	1.000000	1.000000	
2.117091	548.479969	525.474477	-51.020031	-40.025523	2603.043604	1602.042467	64.846635	1.000000	1.000000	1.000000	
2.198153	546.099091	524.024146	-53.400909	-41.475854	2851.657102	1720.246442	67.615853	1.000000	1.000000	1.000000	
2.298399	543.718213	524.157735	-55.781787	-41.342265	3111.607759	1709.182855	69.431914	1.000000	1.000000	1.000000	
2.401869	541.337335	525.490444	-58.162665	-40.009556	3382.895573	1600.764554	70.595043	1.000000	1.000000	1.000000	
2.498338	540.017257	528.183473	-59.482743	-37.316527	3538.196663	1392.523174	70.219085	1.000000	1.000000	1.000000	
2.598600	540.491180	531.485942	-59.008820	-34.014058	3482.040879	1156.956131	68.110183	1.000000	1.000000	1.000000	
2.702115	541.006702	534.910091	-58.493298	-30.589909	3421.465928	935.742525	66.009154	1.000000	1.000000	1.000000	
2.798444	541.562784	538.334240	-57.937216	-27.165760	3356.720990	737.978511	63.989839	1.000000	1.000000	1.000000	
2.898446	543.199426	541.717829	-56.300574	-23.782171	3169.754602	565.591655	61.117479	1.000000	1.000000	1.000000	
2.998280	545.039908	545.141978	-54.460092	-20.358022	2965.901568	414.449059	58.140783	1.000000	1.000000	1.000000	
3.098378	546.880391	548.525567	-52.619609	-16.974433	2768.823284	288.131376	55.289734	1.000000	1.000000	1.000000	
3.198181	548.720873	551.949716	-50.779127	-13.550284	2578.519749	183.610197	52.555970	1.000000	1.000000	1.000000	
3.301878	550.561355	555.373865	-48.938645	-10.126135	2394.990964	102.538611	49.975290	1.000000	1.000000	1.000000	
3.398287	552.401837	558.473534	-47.098163	-7.026466	2218.236928	49.371226	47.619409	1.000000	1.000000	1.000000	
3.498497	552.977680	558.485443	-46.522320	-7.014557	2164.326302	49.204012	47.048170	1.000000	1.000000	1.000000	
3.598446	552.718402	557.806792	-46.781598	-7.693208	2188.517936	59.185452	47.409950	1.000000	1.000000	1.000000	
3.702728	552.459124	557.128141	-47.040876	-8.371859	2212.844020	70.088026	47.780038	1.000000	1.000000	1.000000	
3.797782	552.199846	556.408930	-47.300154	-9.091070	2237.304554	82.647558	48.165881	1.000000	1.000000	1.000000	
3.901854	551.940568	555.668919	-47.559432	-9.831081	2261.899537	96.650159	48.564902	1.000000	1.000000	1.000000	
3.997844	551.681291	554.949708	-47.818709	-10.550292	2286.628971	111.308667	48.968741	1.000000	1.000000	1.000000	
4.103949	551.422013	554.209697	-48.077987	-11.290303	2311.492855	127.470949	49.385866	1.000000	1.000000	1.000000	
4.197999	551.162735	553.490486	-48.337265	-12.009514	2336.491188	144.228435	49.806823	1.000000	1.000000	1.000000	
4.301647	550.482481	557.208767	-49.017519	-8.291233	2402.717121	68.744541	49.713798	1.000000	1.000000	1.000000	
4.398037	549.843828	560.927049	-49.656172	-4.572951	2465.735418	20.911883	49.866294	1.000000	1.000000	1.000000	
4.501391	550.366854	564.645330	-49.133146	-0.854670	2414.065987	0.730460	49.140578	1.000000	1.000000	1.000000	
4.601108	551.195641	568.261692	-48.304359	2.761692	2333.311099	7.626942	48.383241	1.000000	1.000000	1.000000	
4.698140	552.004667	571.918613	-47.495333	6.418613	2255.806610	41.198598	47.927082	1.000000	1.000000	1.000000	
4.799524	552.833454	575.534975	-46.666546	10.034975	2177.766516	100.700722	47.733293	1.000000	1.000000	1.000000	
4.898227	553.702800	579.151336	-45.797200	13.651336	2097.383482	186.358987	47.788518	1.000000	1.000000	1.000000	
4.998079	554.572147	582.727138	-44.927853	17.227138	2018.511975	296.774284	48.117422	1.000000	1.000000	1.000000	
5.102093	555.400934	586.343500	-44.099066	20.843500	1944.727666	434.451474	48.776830	1.000000	1.000000	1.000000	
5.198410	556.229720	589.959861	-43.270280	24.459861	1872.317131	598.284805	49.705150	1.000000	1.000000	1.000000	
5.297999	557.058507	593.616783	-42.441493	28.116783	1801.280370	790.553466	50.910056	1.000000	1.000000	1.000000	
5.401730	557.927853	597.233144	-41.572147	31.733144	1728.243406	1006.992440	52.299482	1.000000	1.000000	1.000000	
5.497952	558.736880	600.849506	-40.763120	35.349506	1661.631992	1249.587555	53.955718	1.000000	1.000000	1.000000	
5.598074	559.565666	604.506427	-39.934334	39.006427	1594.751032	1521.501369	55.823404	1.000000	1.000000	1.000000	
5.701531	560.150053	608.163349	-39.349947	42.663349	1548.418368	1820.161332	58.039467	1.000000	1.000000	1.000000	
5.797938	560.571159	611.779710	-38.928841	46.279710	1515.454661	2141.811591	60.475336	1.000000	1.000000	1.000000	
5.897930	560.992266	615.355512	-38.507734	49.855512	1482.845616	2485.572067	62.995378	1.000000	1.000000	1.000000	
6.001352	561.372812	619.052993	-38.127188	53.552993	1453.682464	2867.923107	65.738920	1.000000	1.000000	1.000000	
6.098860	561.712799	622.669355	-37.787201	57.169355	1427.872596	3268.335150	68.528883	1.000000	1.000000	1.000000	
6.198064	562.031985	626.285717	-37.468015	60.785717	1403.852147	3694.903335	71.405570	1.000000	1.000000	1.000000	
6.297861	562.493652	629.069038	-37.006348	63.569038	1369.469828	4041.022603	73.556050	1.000000	1.000000	1.000000	
6.398380	563.016678	631.852360	-36.483322	66.352360	1331.032783	4402.635628	75.720991	1.000000	1.000000	1.000000	
6.497988	563.499145	634.635681	-36.000855	69.135681	1296.061596	4779.742411	77.947444	1.000000	1.000000	1.000000	
6.601425	564.022171	637.419003	-35.477829	71.919003	1258.676349	5172.342952	80.193636	1.000000	1.000000	1.000000	
6.697890	564.483838	640.202324	-35.016162	74.702324	1226.131635	5580.437250	82.501933	1.000000	1.000000	1.000000	
6.802020	564.966304	642.985646	-34.533696	77.485646	1192.576158	6004.025306	84.832785	1.000000	1.000000	1.000000	
6.898023	565.489331	645.768967	-34.010669	80.268967	1156.725639	6443.107119	87.177020	1.000000	1.000000	1.000000	
6.998036	565.971797	648.552289	-33.528203	83.052289	1124.140395	6897.682691	89.564631	1.000000	1.000000	1.000000	
7.098017	566.454264	651.335610	-33.045736	85.835610	1092.020699	7367.752019	91.977023	1.000000	1.000000	1.000000	
7.201542	566.936730	654.118932	-32.563270	88.618932	1060.366552	7853.315106	94.412296	1.000000	1.000000	1.000000	
7.298040	567.419197	656.901214	-32.080803	91.401214	1029.177952	8354.181834	96.867744	1.000000	1.000000	1.000000	
7.397922	567.982783	658.725655	-31.517217	93.225655	993.334966	8691.022764	98.409134	1.000000	1.000000	1.000000	
7.502207	568.546370	659.469537	-30.953630	93.969537	958.127240	8830.273812	98.936348	1.000000	1.000000	1.000000	
7.598459	569.028836	659.438618	-30.471164	93.938618	928.491834	8824.463982	98.757055	1.000000	1.000000	1.000000	
7.697977	569.551863	658.734820	-29.948137	93.234820	896.890938	8692.731605	97.926618	1.000000	1.000000	1.000000	
7.801418	570.074889	657.846941	-29.425111	92.346941	865.837156	8527.957558	96.921591	1.000000	1.000000	1.000000	
7.898248	570.597916	656.959063	-28.902084	91.459063	835.330487	8364.760167	95.917103	1.000000	1.000000	1.000000	
7.997767	571.080382	656.071184	-28.419618	90.571184	807.674686	8203.139432	94.925308	1.000000	1.000000	1.000000	
8.103600	571.542049	655.183306	-27.957951	89.683306	781.647050	8043.095354	93.940100	1.000000	1.000000	1.000000	
8.198037	572.024515	654.295427	-27.475485	88.795427	754.902274	7884.627932	92.949073	1.000000	1.000000	1.000000	
8.297958	572.547542	653.347229	-26.952458	87.847229	726.435017	7717.135638	91.888904	1.000000	1.000000	1.000000	
8.401464	573.030008	652.174391	-26.469992	86.674391	700.660475	7512.449971	90.626213	1.000000	1.000000	1.000000	
8.497816	573.593595	650.736352	-25.906405	85.236352	671.141844	7265.235713	89.086349	1.000000	1.000000	1.000000	
8.601548	574.055261	649.115274	-25.444739	83.615274	647.434741	6991.513980	87.401080	1.000000	1.000000	1.000000	
8.701444	574.578288	647.350675	-24.921712	81.850675	621.091752	6699.533022	85.560650	1.000000	1.000000	1.000000	
8.797832	575.039954	645.504957	-24.460046	80.004957	598.293849	6400.793096	83.660546	1.000000	1.000000	1.000000	
8.901224	575.522421	643.597878	-23.977579	78.097878	574.924317	6099.278585	81.695795	1.000000	1.000000	1.000000	
8.997850	576.045447	641.609680	-23.454553	76.109680	550.116055	5792.683357	79.641694	1.000000	1.000000	1.000000	
9.103038	576.609034	639.621481	-22.890966	74.121481	523.996345	5493.993994	77.575707	1.000000	1.000000	1.000000	
9.197816	577.091500	637.673843	-22.408500	72.173843	502.140870	5209.063595	75.572511	1.000000	1.000000	1.000000	
9.301686	577.573967	635.685644	-21.926033	70.185644	480.750943	4926.024682	73.530780	1.000000	1.000000	1.000000	
9.397861	577.995073	633.697446	-21.504927	68.197446	462.461883	4650.891635	71.507716	1.000000	1.000000	1.000000	
9.497956	578.477540	631.709248	-21.022460	66.209248	441.943844	4383.664455	69.466598	1.000000	1.000000	1.000000	
9.601985	579.041126	629.721049	-20.458874	64.221049	418.565524	4124.343141	67.401103	1.000000	1.000000	1.000000	
9.697951	579.502793	627.732851	-19.997207	62.232851	399.888306	3872.927693	65.366781	1.000000	1.000000	1.000000	
9.797897	579.985259	625.744652	-19.514741	60.244652	380.825114	3629.418111	63.326481	1.000000	1.000000	1.000000	
9.901657	584.349202	618.085048	-15.150798	52.585048	229.546682	2765.187233	54.724162	1.000000	1.000000	1.000000	
10.001077	588.672585	610.404643	-10.827415	44.904643	117.232919	2016.426972	46.191556	1.000000	1.000000	1.000000	
10.098838	593.036528	602.724239	-6.463472	37.224239	41.776473	1385.643938	37.781218	1.000000	1.000000	1.000000	
10.201323	597.359911	595.064634	-2.140089	29.564634	4.579982	874.067588	29.641990	1.000000	1.000000	1.000000	
10.297765	601.723854	587.343670	2.223854	21.843670	4.945525	477.145900	21.956580	1.000000	1.000000	1.000000	
10.397883	606.128356	579.541585	6.628356	14.041585	43.935110	197.166110	15.527434	1.000000	1.000000	1.000000	
10.501363	610.553659	571.780061	11.053659	6.280061	122.183386	39.439160	12.713086	1.000000	1.000000	1.000000	
10.597986	614.978962	564.018536	15.478962	-1.481464	239.598273	2.194736	15.549695	1.000000	1.000000	1.000000	
10.701444	619.485385	556.216451	19.985385	-9.283549	399.415621	86.184273	22.036331	1.000000	1.000000	1.000000	
10.798081	623.910688	548.454927	24.410688	-17.045073	595.881693	290.534515	29.772743	1.000000	1.000000	1.000000	
10.898193	628.376551	540.693402	28.876551	-24.806598	833.855197	615.367282	38.068655	1.000000	1.000000	1.000000	
10.997778	632.882974	532.891318	33.382974	-32.608682	1114.422946	1063.326146	46.666359	1.000000	1.000000	1.000000	
11.102256	637.206357	525.802673	37.706357	-39.697327	1421.769344	1575.877737	54.750772	1.000000	1.000000	1.000000	
11.196967	640.754940	520.080589	41.254940	-45.419411	1701.970050	2062.922904	61.358724	1.000000	1.000000	1.000000	
11.296934	643.242723	515.540984	43.742723	-49.959016	1913.425782	2495.903241	66.402779	1.000000	1.000000	1.000000	
11.400884	645.526666	511.429860	46.026666	-54.070140	2118.453939	2923.580053	71.007281	1.000000	1.000000	1.000000	
11.497149	647.851168	507.705615	48.351168	-57.794385	2337.835488	3340.190896	75.352680	1.000000	1.000000	1.000000	
11.596910	650.135111	504.409851	50.635111	-61.090149	2563.914499	3732.006325	79.346839	1.000000	1.000000	1.000000	
11.700925	652.419054	501.481206	52.919054	-64.018794	2800.426301	4098.405944	83.059209	1.000000	1.000000	1.000000	
11.797146	654.662437	498.674242	55.162437	-66.825758	3042.894471	4465.681958	86.652042	1.000000	1.000000	1.000000	
11.896124	656.946380	495.908877	57.446380	-69.591123	3300.086580	4842.924360	90.238633	1.000000	1.000000	1.000000	
12.000882	659.189763	493.143513	59.689763	-72.356487	3562.867801	5235.461244	93.799409	1.000000	1.000000	1.000000	
12.097677	661.290666	490.378148	61.790666	-75.121852	3818.086386	5643.292610	97.269620	1.000000	1.000000	1.000000	
12.196886	662.840369	487.612784	63.340369	-77.887216	4012.002314	6066.418457	100.391338	1.000000	1.000000	1.000000	
12.300523	663.819112	484.847419	64.319112	-80.652581	4136.948125	6504.838786	103.159037	1.000000	1.000000	1.000000	
12.396765	664.797855	482.082055	65.297855	-83.417945	4263.809811	6958.553597	105.935657	1.000000	1.000000	1.000000	
12.496893	665.471877	479.520530	65.971877	-85.979470	4352.288617	7392.469229	108.373234	1.000000	1.000000	1.000000	
12.600301	665.759020	477.364606	66.259020	-88.135394	4390.257781	7767.847733	110.263800	1.000000	1.000000	1.000000	
12.696817	665.802803	475.432281	66.302803	-90.067719	4396.061722	8112.193978	111.840313	1.000000	1.000000	1.000000	
12.800542	665.237146	473.866037	65.737146	-91.633963	4321.372388	8396.783241	112.774801	1.000000	1.000000	1.000000	
12.900476	664.611169	472.340352	65.111169	-93.159648	4239.464340	8678.719993	113.658191	1.000000	1.000000	1.000000	
12.996851	663.903032	470.874988	64.403032	-94.625012	4147.750530	8953.892971	114.462411	1.000000	1.000000	1.000000	
13.100601	662.077935	469.937943	62.577935	-95.562057	3915.997936	9132.106721	114.228301	1.000000	1.000000	1.000000	
13.200433	658.810358	469.650899	59.310358	-95.849101	3517.718542	9187.050245	112.715433	1.000000	1.000000	1.000000	
13.296765	655.401341	469.363854	55.901341	-96.136146	3124.959893	9242.158557	111.207547	1.000000	1.000000	1.000000	
13.400696	649.465689	474.287054	49.965689	-91.212946	2496.570067	8319.801555	104.001787	1.000000	1.000000	1.000000	
13.500426	643.448917	479.352734	43.948917	-86.147266	1931.507314	7421.351518	96.710180	1.000000	1.000000	1.000000	
13.596730	637.432145	484.418413	37.932145	-81.081587	1438.847647	6574.223704	89.515760	1.000000	1.000000	1.000000	
13.700524	631.415373	489.524653	31.915373	-75.975347	1018.591065	5772.253348	82.406580	1.000000	1.000000	1.000000	
13.800379	625.398602	494.630893	25.898602	-70.869107	670.737569	5022.430359	75.453084	1.000000	1.000000	1.000000	
13.896851	619.381830	499.777693	19.881830	-65.722307	395.287160	4319.421701	68.663738	1.000000	1.000000	1.000000	
14.000099	613.405618	504.924492	13.905618	-60.575508	193.366214	3669.392138	62.151093	1.000000	1.000000	1.000000	
14.102552	607.388846	510.092092	7.888846	-55.407908	62.233896	3070.036269	55.966688	1.000000	1.000000	1.000000	
14.196803	601.453194	515.198332	1.953194	-50.301668	3.814969	2530.257829	50.339575	1.000000	1.000000	1.000000	
14.296890	595.517543	519.857371	-3.982457	-45.642629	15.859966	2083.249538	45.816040	1.000000	1.000000	1.000000	
14.400299	589.602691	524.292811	-9.897309	-41.207189	97.956728	1698.032406	42.379112	1.000000	1.000000	1.000000	
14.496789	583.728399	528.180171	-15.771601	-37.319829	248.743396	1392.769639	40.515590	1.000000	1.000000	1.000000	
14.600214	577.996587	531.641131	-21.503413	-33.858869	462.396760	1146.423029	40.110096	1.000000	1.000000	1.000000	
14.700309	573.767575	534.959610	-25.732425	-30.540390	662.157673	932.715393	39.935862	1.000000	1.000000	1.000000	
14.797096	569.721604	538.278090	-29.778396	-27.221910	886.752889	741.032373	40.345821	1.000000	1.000000	1.000000	
14.896763	567.564272	541.556010	-31.935728	-23.943990	1019.890733	573.314660	39.914977	1.000000	1.000000	1.000000	
15.009912	565.447500	544.833930	-34.052500	-20.666070	1159.572753	427.086462	39.832891	1.000000	1.000000	1.000000	
15.096921	563.392088	548.071289	-36.107912	-17.428711	1303.781292	303.759952	40.094155	1.000000	1.000000	1.000000	
15.200396	561.417796	551.349209	-38.082204	-14.150791	1450.254228	200.244881	40.626335	1.000000	1.000000	1.000000	
15.300212	559.727425	554.627129	-39.772575	-10.872871	1581.857751	118.219326	41.231991	1.000000	1.000000	1.000000	
15.396843	558.200333	557.864489	-41.299667	-7.635511	1705.662508	58.301033	41.999566	1.000000	1.000000	1.000000	
15.502155	556.674281	561.182968	-42.825719	-4.317032	1834.042206	18.636762	43.042757	1.000000	1.000000	1.000000	
15.596689	555.148229	564.460888	-44.351771	-1.039112	1967.079571	1.079753	44.363942	1.000000	1.000000	1.000000	
15.697227	553.703297	567.738808	-45.796703	2.238808	2097.337967	5.012261	45.851393	1.000000	1.000000	1.000000	
15.797125	552.421646	571.016728	-47.078354	5.516728	2216.371452	30.434284	47.400482	1.000000	1.000000	1.000000	
15.900964	551.139994	574.294647	-48.360006	8.794647	2338.690199	77.345822	49.153189	1.000000	1.000000	1.000000	
15.996878	549.939462	577.572567	-49.560538	12.072567	2456.246926	145.746877	51.009742	1.000000	1.000000	1.000000	
16.097594	549.432610	580.850487	-50.067390	15.350487	2506.743521	235.637447	52.367747	1.000000	1.000000	1.000000	
16.198118	550.312078	584.128407	-49.187922	18.628407	2419.451631	347.017533	52.597235	1.000000	1.000000	1.000000	
16.300910	551.334027	587.365766	-48.165973	21.865766	2319.960994	478.111738	52.896812	1.000000	1.000000	1.000000	
16.397153	552.763655	590.319206	-46.736345	24.819206	2184.285963	615.992991	52.917662	1.000000	1.000000	1.000000	
16.501806	555.742883	593.149926	-43.757117	27.649926	1914.685289	764.518398	51.761025	1.000000	1.000000	1.000000	
16.596541	560.067871	595.798646	-39.432129	30.298646	1554.892783	918.007924	49.728269	1.000000	1.000000	1.000000	
16.696880	564.352299	598.386005	-35.147701	32.886005	1235.360859	1081.489346	48.133670	1.000000	1.000000	1.000000	
