AF-MATB V. 3.03
Programmed using MATLAB 7.5.0 and other Custom MATLAB Functions.

William Daniel Miller, Jr.
Air Force Research Laboratory
711th Human Performance Wing
Human Effectiveness Directorate
Applied Neuroscience Branch

RMS Center Coordinate (X,Y) is:	599.500000	565.500000	
Tracking Box X-Axis Lower Limit is:	449.500000	
Tracking Box X-Axis Upper Limit is:	749.500000	
Tracking Box Y-Axis Lower Limit is:	417.500000	
Tracking Box Y-Axis Upper Limit is:	717.500000	


Event Time	X Coordinates	Y Coordinates	X-Axis Difference	Y-Axis Difference	X-Axis Deviation	Y-Axis Deviation	Euclidian Distance From Target	X-Axis In Range?	y-Axis In Range?	Both In Range?
0.102261	605.080904	565.442952	5.580904	-0.057048	31.146495	0.003255	5.581196	1.000000	1.000000	1.000000	
0.109520	610.661809	565.446743	11.161809	-0.053257	124.585979	0.002836	11.161936	1.000000	1.000000	1.000000	
0.202909	616.242713	565.389695	16.742713	-0.110305	280.318453	0.012167	16.743077	1.000000	1.000000	1.000000	
0.299418	621.914098	565.271806	22.414098	-0.228194	502.391785	0.052072	22.415259	1.000000	1.000000	1.000000	
0.402903	627.495002	565.214758	27.995002	-0.285242	783.720158	0.081363	27.996456	1.000000	1.000000	1.000000	
0.502726	633.075907	565.157709	33.575907	-0.342291	1127.341521	0.117163	33.577652	1.000000	1.000000	1.000000	
0.599207	638.656811	565.100661	39.156811	-0.399339	1533.255874	0.159472	39.158848	1.000000	1.000000	1.000000	
0.702664	644.298556	565.043612	44.798556	-0.456388	2006.910603	0.208290	44.800880	1.000000	1.000000	1.000000	
0.799250	650.246060	564.986564	50.746060	-0.513436	2575.162635	0.263617	50.748658	1.000000	1.000000	1.000000	
0.902635	659.985925	564.929515	60.485925	-0.570485	3658.547095	0.325453	60.488615	1.000000	1.000000	1.000000	
0.999348	670.429349	564.872467	70.929349	-0.627533	5030.972584	0.393798	70.932125	1.000000	1.000000	1.000000	
1.113630	679.771414	564.815418	80.271414	-0.684582	6443.499860	0.468652	80.274333	1.000000	1.000000	1.000000	
1.199165	688.991798	564.758370	89.491798	-0.741630	8008.781944	0.550015	89.494871	1.000000	1.000000	1.000000	
1.299368	698.120143	564.762161	98.620143	-0.737839	9725.932541	0.544406	98.622903	1.000000	1.000000	1.000000	
1.402807	704.771207	564.644273	105.271207	-0.855727	11082.027055	0.732269	105.274685	1.000000	1.000000	1.000000	
1.499282	710.810752	564.283025	111.310752	-1.216975	12390.083427	1.481029	111.317404	1.000000	1.000000	1.000000	
1.599384	716.850296	564.043456	117.350296	-1.456544	13771.091995	2.121520	117.359335	1.000000	1.000000	1.000000	
1.702756	722.827441	563.558968	123.327441	-1.941032	15209.657600	3.767607	123.342714	1.000000	1.000000	1.000000	
1.799608	728.406785	563.074479	128.906785	-2.425521	16616.959233	5.883151	128.929602	1.000000	1.000000	1.000000	
1.903000	733.101610	562.589991	133.601610	-2.910009	17849.390069	8.468154	133.633298	1.000000	1.000000	1.000000	
2.002726	737.431394	562.105502	137.931394	-3.394498	19025.069453	11.522615	137.973157	1.000000	1.000000	1.000000	
2.105509	741.761178	561.621014	142.261178	-3.878986	20238.242904	15.046534	142.314052	1.000000	1.000000	1.000000	
2.199584	745.969283	561.074125	146.469283	-4.425875	21453.250851	19.588367	146.536136	1.000000	1.000000	1.000000	
2.302725	744.265525	554.916363	144.765525	-10.583637	20957.057307	112.013375	145.151888	1.000000	1.000000	1.000000	
2.398209	742.073488	548.697760	142.573488	-16.802240	20327.199360	282.315255	143.560143	1.000000	1.000000	1.000000	
2.501730	738.419730	542.020518	138.919730	-23.479482	19298.691352	551.286076	140.889948	1.000000	1.000000	1.000000	
2.601751	730.773932	534.669356	131.273932	-30.830644	17232.845274	950.528639	134.845741	1.000000	1.000000	1.000000	
2.698242	722.153135	527.104473	122.653135	-38.395527	15043.791404	1474.216487	128.522402	1.000000	1.000000	1.000000	
2.798183	713.532337	519.539591	114.032337	-45.960409	13003.373839	2112.359229	122.946058	1.000000	1.000000	1.000000	
2.901756	704.850699	512.035548	105.350699	-53.464452	11098.769805	2858.447607	118.140668	1.000000	1.000000	1.000000	
2.998169	696.108221	504.470666	96.608221	-61.029334	9333.148448	3724.579639	114.270417	1.000000	1.000000	1.000000	
3.101875	687.304904	496.813743	87.804904	-68.686257	7709.701121	4717.801859	111.478711	1.000000	1.000000	1.000000	
3.201692	678.501586	489.248861	79.001586	-76.251139	6241.250598	5814.236220	109.797481	1.000000	1.000000	1.000000	
3.298162	669.698268	481.683978	70.198268	-83.816022	4927.796880	7025.125475	109.329421	1.000000	1.000000	1.000000	
3.401794	660.894951	474.058256	61.394951	-91.441744	3769.339967	8361.592552	110.140513	1.000000	1.000000	1.000000	
3.501716	652.030793	466.432534	52.530793	-99.067466	2759.484210	9814.362914	112.133167	1.000000	1.000000	1.000000	
3.598162	643.227475	458.775611	43.727475	-106.724389	1912.092095	11390.095191	115.335109	1.000000	1.000000	1.000000	
3.701872	634.424158	451.149889	34.924158	-114.350111	1219.696783	13075.947970	119.564396	1.000000	1.000000	1.000000	
3.801640	625.620840	443.524166	26.120840	-121.975834	682.298277	14878.104034	124.741342	1.000000	1.000000	1.000000	
3.928151	616.817522	435.959284	17.317522	-129.540716	299.896575	16780.797169	130.693128	1.000000	1.000000	1.000000	
3.997212	602.240022	431.499490	2.740022	-134.000510	7.507719	17956.136560	134.028520	1.000000	1.000000	1.000000	
4.104237	587.662521	427.070897	-11.837479	-138.429103	140.125902	19162.616514	138.934310	1.000000	1.000000	1.000000	
4.215292	573.085021	422.642304	-26.414979	-142.857696	697.751125	20408.321345	145.279291	1.000000	1.000000	1.000000	
4.298638	558.568360	418.213711	-40.931640	-147.286289	1675.399124	21693.251053	152.868081	1.000000	1.000000	1.000000	
4.402624	544.173380	414.059677	-55.326620	-151.440323	3061.034893	22934.171345	161.230289	1.000000	0.000000	0.000000	
4.498575	529.778399	412.595084	-69.721601	-152.904916	4861.101587	23379.913340	168.050632	1.000000	0.000000	0.000000	
4.601689	516.968379	414.116331	-82.531621	-151.383669	6811.468471	22917.015331	172.419499	1.000000	0.000000	0.000000	
4.701700	506.047518	416.763897	-93.452482	-148.736103	8733.366299	22122.428214	175.658175	1.000000	0.000000	0.000000	
4.798203	495.705418	419.656384	-103.794582	-145.843616	10773.315245	21270.360294	179.007473	1.000000	1.000000	1.000000	
4.901869	486.946718	423.463031	-112.553282	-142.036969	12668.241386	20174.500613	181.225666	1.000000	1.000000	1.000000	
5.001667	478.858817	427.848438	-120.641183	-137.651562	14554.295010	18947.952650	183.036192	1.000000	1.000000	1.000000	
5.098730	471.198357	432.355524	-128.301643	-133.144476	16461.311688	17727.451425	184.902037	1.000000	1.000000	1.000000	
5.201876	464.573736	437.166811	-134.926264	-128.333189	18205.096669	16469.407412	186.210913	1.000000	1.000000	1.000000	
5.301652	458.314156	442.099778	-141.185844	-123.400222	19933.442626	15227.614874	187.512820	1.000000	1.000000	1.000000	
5.398234	452.297935	446.971904	-147.202065	-118.528096	21668.447866	14048.909455	188.990363	1.000000	1.000000	1.000000	
5.501727	446.587475	451.844031	-152.912525	-113.655969	23382.240367	12917.679273	190.525378	0.000000	1.000000	0.000000	
5.601719	441.518174	456.776998	-157.981826	-108.723002	24958.257244	11820.691212	191.778384	0.000000	1.000000	0.000000	
5.698358	438.498714	461.649124	-161.001286	-103.850876	25921.414139	10785.004344	191.589192	0.000000	1.000000	0.000000	
5.801880	435.418413	464.784971	-164.081587	-100.715029	26922.767062	10143.517027	192.526061	0.000000	1.000000	0.000000	
5.901710	432.338113	465.939618	-167.161887	-99.560382	27943.096488	9912.269683	194.564555	0.000000	1.000000	0.000000	
5.998171	429.257812	466.972585	-170.242188	-98.527415	28982.402415	9707.651583	196.697875	0.000000	1.000000	0.000000	
6.105753	426.238352	467.793391	-173.261648	-97.706609	30019.598666	9546.581379	198.912493	0.000000	1.000000	0.000000	
6.201831	423.250092	468.308438	-176.249908	-97.191562	31064.030232	9446.199718	201.271533	0.000000	1.000000	0.000000	
6.298404	420.934191	468.762645	-178.565809	-96.737355	31885.748116	9358.115903	203.085854	0.000000	1.000000	0.000000	
6.398307	418.955251	469.095171	-180.544749	-96.404829	32596.406531	9293.890968	204.671194	0.000000	1.000000	0.000000	
6.501848	419.761345	470.143985	-179.738655	-95.356015	32305.984096	9092.769603	203.466837	0.000000	1.000000	0.000000	
6.598187	420.720319	471.253638	-178.779681	-94.246362	31962.174191	8882.376659	202.100348	0.000000	1.000000	0.000000	
6.700270	421.740134	472.363292	-177.759866	-93.136708	31598.570027	8674.446377	200.681380	0.000000	1.000000	0.000000	
6.801804	422.841494	472.363292	-176.658506	-93.136708	31208.227808	8674.446377	199.706470	0.000000	1.000000	0.000000	
6.898941	428.143508	473.412106	-171.356492	-92.087894	29363.047278	8480.180310	194.533359	0.000000	1.000000	0.000000	
7.001730	433.996203	474.460919	-165.503797	-91.039081	27391.506950	8288.114263	188.890501	0.000000	1.000000	0.000000	
7.101792	439.817697	475.570573	-159.682303	-89.929427	25498.437888	8087.301921	183.264126	0.000000	1.000000	0.000000	
7.198149	445.639191	476.680226	-153.860809	-88.819774	23673.148419	7888.952240	177.657256	0.000000	1.000000	0.000000	
7.341246	451.491886	477.789880	-148.008114	-87.710120	21906.401866	7693.065222	172.044957	1.000000	1.000000	1.000000	
7.398253	457.344580	478.899533	-142.155420	-86.600467	20208.163375	7499.640866	166.456614	1.000000	1.000000	1.000000	
7.501838	463.166075	480.009187	-136.333925	-85.490813	18586.939212	7308.679171	160.921156	1.000000	1.000000	1.000000	
7.598305	469.018769	481.058000	-130.481231	-84.442000	17025.351641	7130.451340	155.421372	1.000000	1.000000	1.000000	
7.701866	474.871463	482.106814	-124.628537	-83.393186	15532.272132	6954.423527	149.955646	1.000000	1.000000	1.000000	
7.798360	480.724158	483.216467	-118.775842	-82.283533	14107.700688	6770.579773	144.493185	1.000000	1.000000	1.000000	
7.898188	486.576852	484.326121	-112.923148	-81.173879	12751.637307	6589.198681	139.071334	1.000000	1.000000	1.000000	
8.001591	492.398347	485.435774	-107.101653	-80.064226	11470.764159	6410.280250	133.720022	1.000000	1.000000	1.000000	
8.099047	498.251041	486.484588	-101.248959	-79.015412	10251.351697	6243.435375	128.432033	1.000000	1.000000	1.000000	
8.198316	504.103735	487.533401	-95.396265	-77.966599	9100.447298	6078.790520	123.204050	1.000000	1.000000	1.000000	
8.301883	509.864390	488.643055	-89.635610	-76.856945	8034.542614	5906.990030	118.074267	1.000000	1.000000	1.000000	
8.398328	515.625044	489.691868	-83.874956	-75.808132	7035.008209	5746.872833	113.056981	1.000000	1.000000	1.000000	
8.501722	521.477739	490.740682	-78.022261	-74.759318	6087.473273	5588.955657	108.057526	1.000000	1.000000	1.000000	
8.601772	527.330433	491.789495	-72.169567	-73.710505	5208.446400	5433.238499	103.158543	1.000000	1.000000	1.000000	
8.698362	541.306637	492.761154	-58.193363	-72.738846	3386.467442	5290.939715	93.152601	1.000000	1.000000	1.000000	
8.801826	555.251642	493.793653	-44.248358	-71.706347	1957.917191	5141.800243	84.259821	1.000000	1.000000	1.000000	
8.902326	569.135806	494.826151	-30.364194	-70.673849	921.984253	4994.792877	76.920590	1.000000	1.000000	1.000000	
8.998293	583.112011	495.858650	-16.387989	-69.641350	268.566188	4849.917618	71.543580	1.000000	1.000000	1.000000	
9.119258	597.088215	496.891149	-2.411785	-68.608851	5.816705	4707.174467	68.651228	1.000000	1.000000	1.000000	
9.200644	611.033220	497.923647	11.533220	-67.576353	133.015159	4566.563423	68.553472	1.000000	1.000000	1.000000	
9.298286	625.009424	498.895306	25.509424	-66.604694	650.730726	4436.185243	71.322619	1.000000	1.000000	1.000000	
9.398090	638.954429	499.927805	39.454429	-65.572195	1556.651946	4299.712778	76.526889	1.000000	1.000000	1.000000	
9.501434	648.434713	500.899464	48.934713	-64.600536	2394.606155	4173.229312	81.042183	1.000000	1.000000	1.000000	
9.598113	656.997718	501.931962	57.497718	-63.568038	3305.987536	4040.895428	85.713960	1.000000	1.000000	1.000000	
9.701970	665.621562	502.903621	66.121562	-62.596379	4372.060978	3918.306676	91.051456	1.000000	1.000000	1.000000	
9.801504	674.184567	503.875280	74.684567	-61.624720	5577.784487	3797.606165	96.826601	1.000000	1.000000	1.000000	
9.898166	681.707051	504.907778	82.207051	-60.592222	6757.999243	3671.417332	102.124515	1.000000	1.000000	1.000000	
9.998095	688.067336	505.879437	88.567336	-59.620563	7844.172921	3554.611536	106.765090	1.000000	1.000000	1.000000	
10.104265	691.126660	506.911936	91.626660	-58.588064	8395.444820	3432.561283	108.756637	1.000000	1.000000	1.000000	
10.198182	693.697704	507.944434	94.197704	-57.555566	8873.207524	3312.643137	110.389541	1.000000	1.000000	1.000000	
10.298262	696.331149	508.916093	96.831149	-56.583907	9376.271400	3201.738527	112.151727	1.000000	1.000000	1.000000	
10.401754	698.964593	509.887752	99.464593	-55.612248	9893.205336	3092.722158	113.955814	1.000000	1.000000	1.000000	
10.498121	701.598038	510.859410	102.098038	-54.640590	10424.009332	2985.594030	115.799842	1.000000	1.000000	1.000000	
10.598191	704.231482	511.831069	104.731482	-53.668931	10968.683387	2880.354143	117.681934	1.000000	1.000000	1.000000	
10.702289	706.802527	512.802728	107.302527	-52.697272	11513.832253	2777.002498	119.544279	1.000000	1.000000	1.000000	
10.798286	709.312731	512.921066	109.812731	-52.578934	12058.835943	2764.544249	121.751305	1.000000	1.000000	1.000000	
10.901999	711.883776	512.796045	112.383776	-52.703955	12630.113042	2777.706854	124.128240	1.000000	1.000000	1.000000	
11.002265	714.454820	512.396464	114.954820	-53.103536	13214.610681	2819.985550	126.627786	1.000000	1.000000	1.000000	
11.098532	717.088265	511.631843	117.588265	-53.868157	13826.999980	2901.778387	129.339779	1.000000	1.000000	1.000000	
11.198114	719.659309	510.683141	120.159309	-54.816859	14438.259564	3004.888004	132.072509	1.000000	1.000000	1.000000	
11.301601	722.108674	509.673600	122.608674	-55.826400	15032.886834	3116.586944	134.719983	1.000000	1.000000	1.000000	
11.398185	724.010478	508.664059	124.510478	-56.835941	15502.859140	3230.324232	136.869220	1.000000	1.000000	1.000000	
11.499570	725.912282	507.715357	126.412282	-57.784643	15980.065166	3339.064931	138.993274	1.000000	1.000000	1.000000	
11.601561	727.874927	506.705816	128.374927	-58.794184	16480.121873	3456.756072	141.198010	1.000000	1.000000	1.000000	
11.698213	729.776731	505.757115	130.276731	-59.742885	16972.026751	3569.212345	143.322151	1.000000	1.000000	1.000000	
11.798563	731.663961	503.761185	132.163961	-61.738815	17467.312585	3811.681336	145.873212	1.000000	1.000000	1.000000	
11.911229	733.551191	501.765254	134.051191	-63.734746	17969.721690	4062.117802	148.431262	1.000000	1.000000	1.000000	
11.997947	735.316740	499.830164	135.816740	-65.669836	18446.186898	4312.527335	150.859916	1.000000	1.000000	1.000000	
12.099138	737.203970	497.834234	137.703970	-67.665766	18962.383268	4578.655885	153.430894	1.000000	1.000000	1.000000	
12.201182	739.091199	495.838304	139.591199	-69.661696	19485.702909	4852.751909	156.007868	1.000000	1.000000	1.000000	
12.298046	739.150109	493.781534	139.650109	-71.718466	19502.152893	5143.538409	156.989462	1.000000	1.000000	1.000000	
12.401491	736.558578	491.846444	137.058578	-73.653556	18785.053909	5424.846381	155.595309	1.000000	1.000000	1.000000	
12.501325	734.027888	489.789673	134.527888	-75.710327	18097.752636	5732.053559	154.369058	1.000000	1.000000	1.000000	
12.598015	731.436358	487.854583	131.936358	-77.645417	17407.202434	6028.810750	153.088253	1.000000	1.000000	1.000000	
12.701502	728.844827	485.919493	129.344827	-79.580507	16730.084292	6333.057089	151.865537	1.000000	1.000000	1.000000	
12.801300	726.253297	483.984403	126.753297	-81.515597	16066.398210	6644.792576	150.702325	1.000000	1.000000	1.000000	
12.898754	723.722606	481.988473	124.222606	-83.511527	15431.255894	6974.175192	149.684438	1.000000	1.000000	1.000000	
13.001821	721.131076	480.053383	121.631076	-85.446617	14794.118594	7301.124436	148.644687	1.000000	1.000000	1.000000	
13.101755	718.478705	478.118292	118.978705	-87.381708	14155.932324	7635.562829	147.619427	1.000000	1.000000	1.000000	
13.230037	715.887175	476.122362	116.387175	-89.377638	13545.974482	7988.362138	146.745823	1.000000	1.000000	1.000000	
13.298540	713.295644	474.187272	113.795644	-91.312728	12949.448700	8338.014288	145.902238	1.000000	1.000000	1.000000	
13.401377	710.764954	472.191342	111.264954	-93.308658	12379.889997	8706.505682	145.211555	1.000000	1.000000	1.000000	
13.498112	708.234264	470.256252	108.734264	-95.243748	11823.140081	9071.371589	144.549340	1.000000	1.000000	1.000000	
13.598248	705.642733	468.260322	106.142733	-97.239678	11266.279804	9455.555067	143.950807	1.000000	1.000000	1.000000	
13.701712	703.051203	466.325231	103.551203	-99.174769	10722.851587	9835.634732	143.382308	1.000000	1.000000	1.000000	
13.797984	700.459672	464.329301	100.959672	-101.170699	10192.855430	10235.510294	142.927834	1.000000	1.000000	1.000000	
13.901598	697.928982	462.333371	98.428982	-103.166629	9688.264470	10643.353331	142.588982	1.000000	1.000000	1.000000	
14.001366	695.398291	460.704041	95.898291	-104.795959	9196.482299	10982.193049	142.051664	1.000000	1.000000	1.000000	
14.099233	692.806761	459.775151	93.306761	-105.724849	8706.151647	11177.743757	141.010267	1.000000	1.000000	1.000000	
14.198164	690.215231	459.150461	90.715231	-106.349539	8229.253055	11310.224542	139.783681	1.000000	1.000000	1.000000	
14.301504	687.684540	459.257410	88.184540	-106.242590	7776.513117	11287.487850	138.072448	1.000000	1.000000	1.000000	
14.398212	685.153850	459.943120	85.653850	-105.556880	7336.581966	11142.254870	135.936885	1.000000	1.000000	1.000000	
14.501666	682.562319	461.056270	83.062319	-104.443730	6899.348880	10908.492727	133.446025	1.000000	1.000000	1.000000	
14.601603	680.031629	462.534460	80.531629	-102.965540	6485.343240	10601.902452	130.718192	1.000000	1.000000	1.000000	
14.698255	677.500938	464.134330	78.000938	-101.365670	6084.146389	10274.999112	127.902875	1.000000	1.000000	1.000000	
14.801814	665.162698	467.238162	65.662698	-98.261838	4311.589971	9655.388840	118.181973	1.000000	1.000000	1.000000	
15.007168	652.824459	470.341994	53.324459	-95.158006	2843.497882	9055.046114	109.080447	1.000000	1.000000	1.000000	
15.013011	640.486219	473.445826	40.986219	-92.054174	1679.870121	8473.970937	100.766269	1.000000	1.000000	1.000000	
15.099290	628.026299	476.549658	28.526299	-88.950342	813.749721	7912.163307	93.412596	1.000000	1.000000	1.000000	
15.202752	615.688059	479.653490	16.188059	-85.846510	262.053250	7369.623225	87.359467	1.000000	1.000000	1.000000	
15.299318	603.288979	482.757322	3.788979	-82.742678	14.356362	6846.350691	82.829385	1.000000	1.000000	1.000000	
15.402924	590.889899	485.861155	-8.610101	-79.638845	74.133838	6342.345704	80.102931	1.000000	1.000000	1.000000	
15.502595	578.551659	488.964987	-20.948341	-76.535013	438.832985	5857.608265	79.350118	1.000000	1.000000	1.000000	
15.599363	566.152579	492.068819	-33.347421	-73.431181	1112.050471	5392.138373	80.648551	1.000000	1.000000	1.000000	
15.699315	553.936019	495.172651	-45.563981	-70.327349	2076.076334	4945.936029	83.797448	1.000000	1.000000	1.000000	
15.802823	542.023659	497.911443	-57.476341	-67.588557	3303.529726	4568.213033	88.722842	1.000000	1.000000	1.000000	
15.899542	530.842940	499.704875	-68.657060	-65.795125	4713.791953	4328.998453	95.093588	1.000000	1.000000	1.000000	
15.999111	520.668420	501.437467	-78.831580	-64.062533	6214.418066	4104.008099	101.579654	1.000000	1.000000	1.000000	
16.105800	513.418900	503.048379	-86.081100	-62.451621	7409.955827	3900.204916	106.349240	1.000000	1.000000	1.000000	
16.199031	506.899460	504.659292	-92.600540	-60.840708	8574.860044	3701.591809	110.799151	1.000000	1.000000	1.000000	
16.302714	501.082020	506.209364	-98.417980	-59.290636	9686.098806	3515.379561	114.897687	1.000000	1.000000	1.000000	
