AF-MATB V. 3.03
Programmed using MATLAB 7.5.0 and other Custom MATLAB Functions.

William Daniel Miller, Jr.
Air Force Research Laboratory
711th Human Performance Wing
Human Effectiveness Directorate
Applied Neuroscience Branch

RMS Center Coordinate (X,Y) is:	599.500000	565.500000	
Tracking Box X-Axis Lower Limit is:	449.500000	
Tracking Box X-Axis Upper Limit is:	749.500000	
Tracking Box Y-Axis Lower Limit is:	417.500000	
Tracking Box Y-Axis Upper Limit is:	717.500000	


Event Time	X Coordinates	Y Coordinates	X-Axis Difference	Y-Axis Difference	X-Axis Deviation	Y-Axis Deviation	Euclidian Distance From Target	X-Axis In Range?	y-Axis In Range?	Both In Range?
0.101742	594.809414	569.771239	-4.690586	4.271239	22.001597	18.243480	6.343901	1.000000	1.000000	1.000000	
0.109281	590.118828	574.204717	-9.381172	8.704717	88.006387	75.772104	12.797597	1.000000	1.000000	1.000000	
0.203126	585.388722	578.638196	-14.111278	13.138196	199.128164	172.612195	19.280569	1.000000	1.000000	1.000000	
0.299628	580.658616	582.990555	-18.841384	17.490555	354.997746	305.919504	25.708311	1.000000	1.000000	1.000000	
0.403562	575.886910	587.342913	-23.613090	21.842913	557.578011	477.112866	32.166611	1.000000	1.000000	1.000000	
0.499794	571.156804	591.695272	-28.343196	26.195272	803.336747	686.192279	38.594417	1.000000	1.000000	1.000000	
0.603216	564.540996	591.032436	-34.959004	25.532436	1222.131989	651.905297	43.290152	1.000000	1.000000	1.000000	
0.702988	557.885667	590.369600	-41.614333	24.869600	1731.752714	618.497017	48.479374	1.000000	1.000000	1.000000	
0.799511	551.230338	589.827404	-48.269662	24.327404	2329.960237	591.822603	54.053518	1.000000	1.000000	1.000000	
0.902943	544.533410	589.285208	-54.966590	23.785208	3021.326047	565.736141	59.892088	1.000000	1.000000	1.000000	
1.002917	537.917601	587.686373	-61.582399	22.186373	3792.391855	492.235127	65.457062	1.000000	1.000000	1.000000	
1.099466	531.262272	585.353297	-68.237728	19.853297	4656.387459	394.153388	71.067157	1.000000	1.000000	1.000000	
1.200050	524.646464	582.855901	-74.853536	17.355901	5603.051876	301.227290	76.839307	1.000000	1.000000	1.000000	
1.299485	518.072255	580.358505	-81.427745	14.858505	6630.477621	220.775166	82.772295	1.000000	1.000000	1.000000	
1.399460	511.539647	578.472629	-87.960353	12.972629	7737.023773	168.289101	88.911826	1.000000	1.000000	1.000000	
1.499751	507.534238	576.586753	-91.965762	11.086753	8457.701388	122.916093	92.631622	1.000000	1.000000	1.000000	
1.603076	514.744189	574.170477	-84.755811	8.670477	7183.547442	75.177173	85.198149	1.000000	1.000000	1.000000	
1.702103	535.448995	570.914838	-64.051005	5.414838	4102.531222	29.320465	64.279481	1.000000	1.000000	1.000000	
1.799513	556.031081	567.659198	-43.468919	2.159198	1889.546922	4.662136	43.522512	1.000000	1.000000	1.000000	
1.899952	576.613167	564.486758	-22.886833	-1.013242	523.807135	1.026659	22.909251	1.000000	1.000000	1.000000	
2.003484	597.195253	561.231119	-2.304747	-4.268881	5.311861	18.223348	4.851310	1.000000	1.000000	1.000000	
2.105050	617.737818	559.200599	18.237818	-6.299401	332.618020	39.682452	19.295089	1.000000	1.000000	1.000000	
2.199588	638.361504	557.577759	38.861504	-7.922241	1510.216511	62.761895	39.660792	1.000000	1.000000	1.000000	
2.299521	658.535910	556.075560	59.035910	-9.424440	3485.238674	88.820071	59.783432	1.000000	1.000000	1.000000	
2.399973	670.309196	555.263920	70.809196	-10.236080	5013.942218	104.777328	71.545227	1.000000	1.000000	1.000000	
2.503250	669.352531	563.006789	69.852531	-2.493211	4879.376095	6.216100	69.897011	1.000000	1.000000	1.000000	
2.602225	668.395866	570.749658	68.895866	5.249658	4746.640387	27.558910	69.095581	1.000000	1.000000	1.000000	
2.703002	667.397601	578.534127	67.897601	13.034127	4610.084283	169.888466	69.137347	1.000000	1.000000	1.000000	
2.839466	666.399337	586.276996	66.899337	20.776996	4475.521245	431.683557	70.051444	1.000000	1.000000	1.000000	
2.899764	665.442672	594.019865	65.942672	28.519865	4348.435971	813.382686	71.845798	1.000000	1.000000	1.000000	
2.999509	664.486007	601.804334	64.986007	36.304334	4223.181113	1318.004642	74.439141	1.000000	1.000000	1.000000	
3.103297	672.205511	605.587297	72.705511	40.087297	5286.091277	1606.991366	83.024591	1.000000	1.000000	1.000000	
3.202982	679.964534	609.492980	80.464534	43.992980	6474.541268	1935.382288	91.705635	1.000000	1.000000	1.000000	
3.299295	687.642438	613.398663	88.142438	47.898663	7769.089342	2294.281931	100.316356	1.000000	1.000000	1.000000	
3.403619	695.320341	617.385466	95.820341	51.885466	9181.537824	2692.101615	108.966231	1.000000	1.000000	1.000000	
3.526320	702.386725	620.964589	102.886725	55.464589	10585.678175	3076.320686	116.884554	1.000000	1.000000	1.000000	
3.599368	708.760469	623.405953	109.260469	57.905953	11937.849988	3353.099352	123.656578	1.000000	1.000000	1.000000	
3.703232	714.522692	625.437556	115.022692	59.937556	13230.219706	3592.510597	129.702468	1.000000	1.000000	1.000000	
3.802808	720.282836	627.388039	120.782836	61.888039	14588.493404	3830.129369	135.715227	1.000000	1.000000	1.000000	
4.011551	724.782499	628.930842	125.282499	63.430842	15695.704631	4023.471736	140.424985	1.000000	1.000000	1.000000	
4.016564	730.833853	630.832479	131.333853	65.332479	17248.580999	4268.332753	146.686447	1.000000	1.000000	1.000000	
4.101452	735.707927	632.734115	136.207927	67.234115	18552.599410	4520.426212	151.898076	1.000000	1.000000	1.000000	
4.203167	738.915921	634.635751	139.415921	69.135751	19436.799036	4779.752114	155.616680	1.000000	1.000000	1.000000	
4.300695	741.514475	636.618508	142.014475	71.118508	20168.111092	5057.842143	158.826803	1.000000	1.000000	1.000000	
4.400696	743.990309	638.520144	144.490309	73.020144	20877.449350	5331.941450	161.893146	1.000000	1.000000	1.000000	
4.500614	746.507743	640.421781	147.007743	74.921781	21611.276430	5613.273199	164.998635	1.000000	1.000000	1.000000	
4.612104	749.226937	642.323417	149.726937	76.823417	22418.155563	5901.837389	168.285451	1.000000	1.000000	1.000000	
4.700993	750.588625	642.410686	151.088625	76.910686	22827.772519	5915.253677	169.537684	0.000000	1.000000	0.000000	
4.800581	751.950313	642.662276	152.450313	77.162276	23241.097865	5954.016806	170.865780	0.000000	1.000000	0.000000	
4.903187	753.230881	642.830665	153.730881	77.330665	23633.183720	5980.031785	172.084908	0.000000	1.000000	0.000000	
5.003952	753.292569	642.999055	153.792569	77.499055	23652.154244	6006.103473	172.215730	0.000000	1.000000	0.000000	
5.101092	751.080817	643.250644	151.580817	77.750644	22976.744064	6045.162657	170.358172	0.000000	1.000000	0.000000	
5.203050	748.178505	643.337914	148.678505	77.837914	22105.297847	6058.740782	167.821449	1.000000	1.000000	1.000000	
5.300430	745.276193	643.506303	145.776193	78.006303	21250.698460	6084.983301	165.335059	1.000000	1.000000	1.000000	
5.400704	740.790885	647.102427	141.290885	81.602427	19963.114291	6658.956167	163.162712	1.000000	1.000000	1.000000	
5.503390	736.386698	650.781752	136.886698	85.281752	18737.968010	7272.977216	161.279091	1.000000	1.000000	1.000000	
5.604216	731.982510	654.377876	132.482510	88.877876	17551.615466	7899.276922	159.533358	1.000000	1.000000	1.000000	
5.700942	727.578322	658.057201	128.078322	92.557201	16404.056661	8566.835447	158.021809	1.000000	1.000000	1.000000	
5.803043	723.132535	662.264845	123.632535	96.764845	15285.003636	9363.435313	156.998213	1.000000	1.000000	1.000000	
5.904078	718.524507	666.882250	119.024507	101.382250	14166.833274	10278.360603	156.349589	1.000000	1.000000	1.000000	
6.000476	715.988159	671.499654	116.488159	105.999654	13569.491271	11235.926741	157.497359	1.000000	1.000000	1.000000	
6.105460	717.229092	676.117059	117.729092	110.617059	13860.139030	12236.133727	161.543408	1.000000	1.000000	1.000000	
6.200259	718.592744	680.734463	119.092744	115.234463	14183.081678	13278.981562	165.716816	1.000000	1.000000	1.000000	
6.304007	720.322476	685.351868	120.822476	119.851868	14598.070791	14364.470246	170.183845	1.000000	1.000000	1.000000	
6.402712	710.429807	685.060250	110.929807	119.560250	12305.422154	14294.653268	163.095296	1.000000	1.000000	1.000000	
6.503952	700.416498	684.849751	100.916498	119.349751	10184.139630	14244.363096	156.296202	1.000000	1.000000	1.000000	
6.600896	690.442709	684.558133	90.942709	119.058133	8270.576372	14174.838972	149.817941	1.000000	1.000000	1.000000	
6.707349	680.429400	684.347634	80.929400	118.847634	6549.567827	14124.760190	143.785702	1.000000	1.000000	1.000000	
6.806632	680.468920	684.143794	80.968920	118.643794	6555.966048	14076.349937	143.639535	1.000000	1.000000	1.000000	
6.900769	670.495131	683.523536	70.995131	118.023536	5040.308660	13929.555038	137.731128	1.000000	1.000000	1.000000	
7.002891	660.521342	682.087918	61.021342	116.587918	3723.604206	13592.742520	131.591591	1.000000	1.000000	1.000000	
7.103877	650.508033	679.144299	51.008033	113.644299	2601.819450	12915.026732	124.566634	1.000000	1.000000	1.000000	
7.200388	640.534244	675.262601	41.034244	109.762601	1683.809195	12047.828527	117.182071	1.000000	1.000000	1.000000	
7.301413	630.560455	671.135462	31.060455	105.635462	964.751874	11158.850910	110.107233	1.000000	1.000000	1.000000	
7.400274	620.586666	665.908004	21.086666	100.408004	444.647488	10081.767262	102.598317	1.000000	1.000000	1.000000	
7.503181	623.766000	659.727966	24.266000	94.227966	588.838773	8878.909616	97.302356	1.000000	1.000000	1.000000	
7.609268	628.124695	653.547928	28.624695	88.047928	819.373139	7752.437703	92.584074	1.000000	1.000000	1.000000	
7.700744	634.068349	647.409491	34.568349	81.909491	1194.970737	6709.164663	88.905205	1.000000	1.000000	1.000000	
7.805219	640.012003	641.229453	40.512003	75.729453	1641.222386	5734.950038	85.884646	1.000000	1.000000	1.000000	
7.903402	645.955657	635.049415	46.455657	69.549415	2158.128087	4837.121147	83.637607	1.000000	1.000000	1.000000	
8.004175	651.899311	628.910977	52.399311	63.410977	2745.687838	4020.952052	82.259588	1.000000	1.000000	1.000000	
8.101544	657.842966	622.730940	58.342966	57.230940	3403.901640	3275.380448	81.726875	1.000000	1.000000	1.000000	
8.199359	663.622300	617.815542	64.122300	52.315542	4111.669339	2736.915918	82.756180	1.000000	1.000000	1.000000	
8.304746	665.339394	615.429424	65.839394	49.929424	4334.825812	2492.947388	82.630341	1.000000	1.000000	1.000000	
8.400637	667.056488	613.043306	67.556488	47.543306	4563.879110	2260.365975	82.608989	1.000000	1.000000	1.000000	
8.503018	667.559340	615.687078	68.059340	50.187078	4632.073755	2518.742817	84.562501	1.000000	1.000000	1.000000	
8.603927	668.022672	618.942370	68.522672	53.442370	4695.356525	2856.086917	86.899042	1.000000	1.000000	1.000000	
8.700423	668.242643	622.811262	68.742643	57.311262	4725.551005	3284.580744	89.499339	1.000000	1.000000	1.000000	
8.802967	668.298295	626.680154	68.798295	61.180154	4733.205387	3743.011220	92.066371	1.000000	1.000000	1.000000	
8.904046	668.029467	630.549046	68.529467	65.049046	4696.287793	4231.378344	94.486328	1.000000	1.000000	1.000000	
9.000360	667.802238	634.417938	68.302238	68.917938	4665.195752	4749.682117	97.030294	1.000000	1.000000	1.000000	
9.101420	666.224691	640.226091	66.724691	74.726091	4452.184411	5583.988615	100.180702	1.000000	1.000000	1.000000	
9.200735	664.686664	645.828324	65.186664	80.328324	4249.301172	6452.639577	103.450185	1.000000	1.000000	1.000000	
9.304372	663.148637	651.145597	63.648637	85.645597	4051.148988	7335.168229	106.706688	1.000000	1.000000	1.000000	
9.402995	661.489970	656.340150	61.989970	90.840150	3842.756364	8251.932798	109.975857	1.000000	1.000000	1.000000	
9.500639	659.059623	661.617903	59.559623	96.117903	3547.348664	9238.651228	113.075196	1.000000	1.000000	1.000000	
9.604222	656.629276	666.812456	57.129276	101.312456	3263.754138	10264.213696	116.309793	1.000000	1.000000	1.000000	
9.703179	654.157329	671.478689	54.657329	105.978689	2987.423566	11231.482483	119.243055	1.000000	1.000000	1.000000	
9.801030	651.442021	674.308282	51.942021	108.808282	2697.973594	11839.242200	120.570377	1.000000	1.000000	1.000000	
9.904135	652.144020	661.057198	52.644020	95.557198	2771.392818	9131.178044	109.098904	1.000000	1.000000	1.000000	
10.002968	652.846018	645.848834	53.346018	80.348834	2845.797644	6455.935072	96.445491	1.000000	1.000000	1.000000	
10.101295	653.506416	630.068470	54.006416	64.568470	2916.693009	4169.087263	84.177077	1.000000	1.000000	1.000000	
10.203933	654.085695	613.431145	54.585695	47.931145	2979.598063	2297.394707	72.642913	1.000000	1.000000	1.000000	
10.302928	654.787693	596.673181	55.287693	31.173181	3056.728994	971.767238	63.470436	1.000000	1.000000	1.000000	
10.404124	654.596749	580.602535	55.096749	15.102535	3035.651725	228.086556	57.129137	1.000000	1.000000	1.000000	
10.500490	651.441805	567.712208	51.941805	2.212208	2697.951062	4.893865	51.988892	1.000000	1.000000	1.000000	
10.602427	647.716940	556.371482	48.216940	-9.128518	2324.873338	83.329850	49.073447	1.000000	1.000000	1.000000	
10.703958	643.992076	545.846115	44.492076	-19.653885	1979.544841	386.275200	48.639696	1.000000	1.000000	1.000000	
10.800207	640.186092	536.054988	40.686092	-29.445012	1655.358079	867.008716	50.223170	1.000000	1.000000	1.000000	
10.902786	636.340588	527.528502	36.840588	-37.971498	1357.228907	1441.834688	52.906177	1.000000	1.000000	1.000000	
11.003682	632.615724	519.613535	33.115724	-45.886465	1096.651147	2105.567669	56.588151	1.000000	1.000000	1.000000	
11.100425	628.809739	512.798888	29.309739	-52.701112	859.060821	2777.407165	60.303134	1.000000	1.000000	1.000000	
11.203326	625.084875	507.533842	25.584875	-57.966158	654.585837	3360.075500	63.361355	1.000000	1.000000	1.000000	
11.324847	614.023948	500.083376	14.523948	-65.416624	210.945057	4279.334648	67.009549	1.000000	1.000000	1.000000	
11.413474	602.921420	492.959471	3.421420	-72.540529	11.706117	5262.128353	72.621171	1.000000	1.000000	1.000000	
11.502474	591.900013	486.727886	-7.599987	-78.772114	57.759805	6205.046013	79.137891	1.000000	1.000000	1.000000	
11.604163	581.448525	482.324620	-18.051475	-83.175380	325.855737	6918.143811	85.111689	1.000000	1.000000	1.000000	
11.700269	570.955438	481.374155	-28.544562	-84.125845	814.792025	7077.157837	88.836647	1.000000	1.000000	1.000000	
11.804639	560.949070	482.780329	-38.550930	-82.719671	1486.174168	6842.543910	91.261811	1.000000	1.000000	1.000000	
11.900556	556.793743	485.405384	-42.706257	-80.094616	1823.824385	6415.147518	90.768783	1.000000	1.000000	1.000000	
12.004137	557.767696	488.030439	-41.732304	-77.469561	1741.585233	6001.532949	87.994990	1.000000	1.000000	1.000000	
12.105376	558.741648	490.655493	-40.758352	-74.844507	1661.243248	5601.700204	85.222905	1.000000	1.000000	1.000000	
12.204192	559.715601	493.280548	-39.784399	-72.219452	1582.798430	5215.649282	82.452700	1.000000	1.000000	1.000000	
12.300355	567.191113	499.336469	-32.308887	-66.163531	1043.864151	4377.612873	73.630680	1.000000	1.000000	1.000000	
12.403072	575.359266	504.986790	-24.140734	-60.513210	582.775028	3661.848626	65.150776	1.000000	1.000000	1.000000	
12.503952	583.895579	509.540951	-15.604421	-55.959049	243.497955	3131.415210	58.094003	1.000000	1.000000	1.000000	
12.624007	592.390292	513.972392	-7.109708	-51.527608	50.547951	2655.094433	52.015790	1.000000	1.000000	1.000000	
12.700441	600.966125	518.281112	1.466125	-47.218888	2.149521	2229.623337	47.241643	1.000000	1.000000	1.000000	
12.812164	606.249732	532.893330	6.749732	-32.606670	45.558881	1063.194954	33.297955	1.000000	1.000000	1.000000	
12.900320	611.452219	547.301707	11.952219	-18.198293	142.855546	331.177878	21.772309	1.000000	1.000000	1.000000	
13.004703	616.654707	561.262884	17.154707	-4.237116	294.283961	17.953153	17.670232	1.000000	1.000000	1.000000	
13.103951	621.285194	573.437341	21.785194	7.937341	474.594680	63.001381	23.186118	1.000000	1.000000	1.000000	
13.200388	625.630721	584.351318	26.130721	18.851318	682.814603	355.372193	32.220906	1.000000	1.000000	1.000000	
13.303263	629.895129	595.265295	30.395129	29.765295	923.863856	885.972797	42.542175	1.000000	1.000000	1.000000	
13.404332	633.995216	605.164232	34.495216	39.664232	1189.919941	1573.251323	52.565875	1.000000	1.000000	1.000000	
13.522030	638.136904	613.478209	38.636904	47.978209	1492.810319	2301.908577	61.601290	1.000000	1.000000	1.000000	
13.602420	644.615201	621.321625	45.115201	55.821625	2035.381328	3116.053762	71.773499	1.000000	1.000000	1.000000	
13.700834	651.093498	629.165040	51.593498	63.665040	2661.889003	4053.237267	81.945874	1.000000	1.000000	1.000000	
13.800402	657.530195	637.008455	58.030195	71.508455	3367.503500	5113.459094	92.092142	1.000000	1.000000	1.000000	
13.900493	664.008492	644.812350	64.508492	79.312350	4161.345511	6290.448831	102.234018	1.000000	1.000000	1.000000	
14.003815	670.486789	652.655765	70.986789	87.155765	5039.124187	7596.127356	112.406635	1.000000	1.000000	1.000000	
14.101257	676.800766	659.970860	77.300766	94.470860	5975.408403	8924.743390	122.066178	1.000000	1.000000	1.000000	
14.201151	682.790263	664.024515	83.290263	98.524515	6937.267896	9707.080076	129.012976	1.000000	1.000000	1.000000	
14.301112	688.330480	663.144410	88.830480	97.644410	7890.854170	9534.430844	132.004867	1.000000	1.000000	1.000000	
14.401106	693.747977	659.368945	94.247977	93.868945	8882.681169	8811.378892	133.019021	1.000000	1.000000	1.000000	
14.503044	699.003234	654.655400	99.503234	89.155400	9900.893586	7948.685421	133.602317	1.000000	1.000000	1.000000	
14.600628	704.379131	649.777536	104.879131	84.277536	10999.632139	7102.702991	134.544919	1.000000	1.000000	1.000000	
14.703834	711.288899	632.731327	111.788899	67.231327	12496.757979	4520.051392	130.448493	1.000000	1.000000	1.000000	
14.802856	718.238187	615.766239	118.738187	50.266239	14098.757114	2526.694825	128.939722	1.000000	1.000000	1.000000	
14.912768	725.147955	598.801151	125.647955	33.301151	15787.408681	1108.966683	129.986058	1.000000	1.000000	1.000000	
15.000794	729.775963	581.836063	130.275963	16.336063	16971.826646	266.866965	131.296206	1.000000	1.000000	1.000000	
15.100523	729.041732	565.809055	129.541732	0.309055	16781.060201	0.095515	129.542100	1.000000	1.000000	1.000000	
15.200353	728.265900	549.782047	128.765900	-15.717953	16580.656896	247.054039	129.721667	1.000000	1.000000	1.000000	
15.303866	726.922228	534.366559	127.422228	-31.133441	16236.424104	969.291136	131.170558	1.000000	1.000000	1.000000	
15.402606	725.212476	519.360831	125.712476	-46.139169	15803.626559	2128.822901	133.912096	1.000000	1.000000	1.000000	
15.542749	710.227840	511.159364	110.727840	-54.340636	12260.654449	2952.904748	123.343258	1.000000	1.000000	1.000000	
15.600526	694.552643	503.895976	95.052643	-61.604024	9035.005003	3795.055733	113.269858	1.000000	1.000000	1.000000	
15.700011	678.064167	497.447949	78.564167	-68.052051	6172.328354	4631.081657	103.939454	1.000000	1.000000	1.000000	
15.804066	660.032331	492.549521	60.532331	-72.950479	3664.163084	5321.772314	94.794174	1.000000	1.000000	1.000000	
15.900054	641.877775	487.854934	42.377775	-77.645066	1795.875788	6028.756262	88.456950	1.000000	1.000000	1.000000	
16.000223	623.723218	483.160347	24.223218	-82.339653	586.764313	6779.818512	85.828800	1.000000	1.000000	1.000000	
16.109077	605.325302	479.199999	5.825302	-86.300001	33.934146	7447.690131	86.496383	1.000000	1.000000	1.000000	
16.200360	586.846266	475.809572	-12.653734	-89.690428	160.116983	8044.372906	90.578639	1.000000	1.000000	1.000000	
16.302379	568.286110	472.338024	-31.213890	-93.161976	974.306939	8679.153696	98.252026	1.000000	1.000000	1.000000	
16.403578	549.807074	468.989197	-49.692926	-96.510803	2469.386931	9314.335098	108.552854	1.000000	1.000000	1.000000	
16.501337	542.231819	471.034734	-57.268181	-94.465266	3279.644597	8923.686478	110.468688	1.000000	1.000000	1.000000	
16.602804	534.575444	472.999151	-64.924556	-92.500849	4215.198019	8556.407058	113.011526	1.000000	1.000000	1.000000	
