AF-MATB V. 3.03
Programmed using MATLAB 7.5.0 and other Custom MATLAB Functions.

William Daniel Miller, Jr.
Air Force Research Laboratory
711th Human Performance Wing
Human Effectiveness Directorate
Applied Neuroscience Branch

RMS Target Value is:	2500.000000	
Main Tank Automation Lower Limit is:	2350.000000	
Main Tank Automation Upper Limit is:	2650.000000	


Event Time	Tank A Value	Tank B Value	Tank A Difference	Tank B Difference	Tank A Deviation	Tank B Deviation	Euclidian Distance From Target	Tank A In Range?	Tank B In Range?	Both In Range?
0.074147	2499.739826	2499.739826	-0.260174	-0.260174	0.067690	0.067690	0.367941	1.000000	1.000000	1.000000	
0.148810	2495.577984	2495.577984	-4.422016	-4.422016	19.554221	19.554221	6.253674	1.000000	1.000000	1.000000	
0.202735	2493.304596	2493.304596	-6.695404	-6.695404	44.828438	44.828438	9.468732	1.000000	1.000000	1.000000	
0.298548	2490.112707	2490.112707	-9.887293	-9.887293	97.758561	97.758561	13.982744	1.000000	1.000000	1.000000	
0.399232	2486.749330	2486.749330	-13.250670	-13.250670	175.580268	175.580268	18.739278	1.000000	1.000000	1.000000	
0.502783	2483.384113	2483.384113	-16.615887	-16.615887	276.087708	276.087708	23.498413	1.000000	1.000000	1.000000	
0.599759	2480.077920	2480.077920	-19.922080	-19.922080	396.889288	396.889288	28.174076	1.000000	1.000000	1.000000	
0.699277	2476.754682	2476.754682	-23.245318	-23.245318	540.344797	540.344797	32.873844	1.000000	1.000000	1.000000	
0.802453	2473.381275	2473.381275	-26.618725	-26.618725	708.556523	708.556523	37.644562	1.000000	1.000000	1.000000	
0.902563	2470.044522	2470.044522	-29.955478	-29.955478	897.330655	897.330655	42.363443	1.000000	1.000000	1.000000	
0.999324	2466.749599	2466.749599	-33.250401	-33.250401	1105.589169	1105.589169	47.023168	1.000000	1.000000	1.000000	
1.102499	2463.386392	2463.386392	-36.613608	-36.613608	1340.556256	1340.556256	51.779460	1.000000	1.000000	1.000000	
1.200876	2460.067539	2460.067539	-39.932461	-39.932461	1594.601430	1594.601430	56.473028	1.000000	1.000000	1.000000	
1.298953	2456.757903	2456.757903	-43.242097	-43.242097	1869.878962	1869.878962	61.153560	1.000000	1.000000	1.000000	
1.402496	2453.386014	2453.386014	-46.613986	-46.613986	2172.863695	2172.863695	65.922131	1.000000	1.000000	1.000000	
1.498786	2450.093015	2450.093015	-49.906985	-49.906985	2490.707103	2490.707103	70.579134	1.000000	1.000000	1.000000	
1.599095	2446.755429	2446.755429	-53.244571	-53.244571	2834.984382	2834.984382	75.299195	1.000000	1.000000	1.000000	
1.708435	2443.383091	2443.383091	-56.616909	-56.616909	3205.474433	3205.474433	80.068401	1.000000	1.000000	1.000000	
1.799067	2440.086307	2440.086307	-59.913693	-59.913693	3589.650620	3589.650620	84.730757	1.000000	1.000000	1.000000	
1.902527	2436.719743	2436.719743	-63.280257	-63.280257	4004.390937	4004.390937	89.491798	1.000000	1.000000	1.000000	
2.002641	2433.384936	2433.384936	-66.615064	-66.615064	4437.566734	4437.566734	94.207927	1.000000	1.000000	1.000000	
2.116662	2430.054342	2430.054342	-69.945658	-69.945658	4892.395037	4892.395037	98.918098	1.000000	1.000000	1.000000	
2.199741	2426.742204	2426.742204	-73.257796	-73.257796	5366.704686	5366.704686	103.602169	1.000000	1.000000	1.000000	
2.303061	2423.381649	2423.381649	-76.618351	-76.618351	5870.371678	5870.371678	108.354711	1.000000	1.000000	1.000000	
2.402553	2420.052103	2420.052103	-79.947897	-79.947897	6391.666200	6391.666200	113.063400	1.000000	1.000000	1.000000	
2.499549	2416.747535	2416.747535	-83.252465	-83.252465	6930.972881	6930.972881	117.736765	1.000000	1.000000	1.000000	
2.608980	2413.379175	2413.379175	-86.620825	-86.620825	7503.167337	7503.167337	122.500346	1.000000	1.000000	1.000000	
2.697974	2410.124242	2410.124242	-89.875758	-89.875758	8077.651814	8077.651814	127.103515	1.000000	1.000000	1.000000	
2.843915	2406.746259	2406.746259	-93.253741	-93.253741	8696.260288	8696.260288	131.880706	1.000000	1.000000	1.000000	
2.897942	2403.455997	2403.455997	-96.544003	-96.544003	9320.744430	9320.744430	136.533838	1.000000	1.000000	1.000000	
3.001378	2400.087295	2400.087295	-99.912705	-99.912705	9982.548638	9982.548638	141.297903	1.000000	1.000000	1.000000	
3.098029	2396.787282	2396.787282	-103.212718	-103.212718	10652.865145	10652.865145	145.964826	1.000000	1.000000	1.000000	
3.200593	2393.452775	2393.452775	-106.547225	-106.547225	11352.311225	11352.311225	150.680531	1.000000	1.000000	1.000000	
3.301430	2390.085591	2390.085591	-109.914409	-109.914409	12081.177415	12081.177415	155.442449	1.000000	1.000000	1.000000	
3.397868	2386.790154	2386.790154	-113.209846	-113.209846	12816.469207	12816.469207	160.102899	1.000000	1.000000	1.000000	
3.500227	2383.454599	2383.454599	-116.545401	-116.545401	13582.830532	13582.830532	164.820087	1.000000	1.000000	1.000000	
3.601308	2380.085126	2380.085126	-119.914874	-119.914874	14379.576901	14379.576901	169.585241	1.000000	1.000000	1.000000	
3.697868	2376.790054	2376.790054	-123.209946	-123.209946	15180.690892	15180.690892	174.245177	1.000000	1.000000	1.000000	
3.800306	2373.451462	2373.451462	-126.548538	-126.548538	16014.532568	16014.532568	178.966659	1.000000	1.000000	1.000000	
3.983070	2370.127326	2373.119048	-129.872674	-126.880952	16866.911424	16098.775965	181.564554	1.000000	1.000000	1.000000	
4.037303	2365.518210	2372.658136	-134.481790	-127.341864	18085.351746	16215.950203	185.206107	1.000000	1.000000	1.000000	
4.097917	2363.456921	2372.452008	-136.543079	-127.547992	18644.012344	16268.490370	186.848877	1.000000	1.000000	1.000000	
4.198158	2360.114309	2372.117746	-139.885691	-127.882254	19568.006586	16353.870802	189.530677	1.000000	1.000000	1.000000	
4.301660	2356.746996	2371.781015	-143.253004	-128.218985	20521.423047	16440.108092	192.253820	1.000000	1.000000	1.000000	
4.400371	2353.456671	2371.451983	-146.543329	-128.548017	21474.947251	16524.592788	194.934707	1.000000	1.000000	1.000000	
4.501587	2350.086579	2371.114973	-149.913421	-128.885027	22474.033945	16611.350107	197.700238	1.000000	1.000000	1.000000	
4.597970	2346.789132	2370.785229	-153.210868	-129.214771	23473.570107	16696.457138	200.424617	0.000000	1.000000	0.000000	
4.700355	2343.456656	2370.451981	-156.543344	-129.548019	24505.818517	16782.689211	203.195737	0.000000	1.000000	0.000000	
4.800617	2340.115819	2370.117897	-159.884181	-129.882103	25562.951442	16869.360597	205.991048	0.000000	1.000000	0.000000	
4.898130	2336.788753	2369.785191	-163.211247	-130.214809	26637.911026	16955.896538	208.791301	0.000000	1.000000	0.000000	
5.000435	2333.453198	2369.451635	-166.546802	-130.548365	27737.837223	17042.875536	211.614538	0.000000	1.000000	0.000000	
5.101599	2330.080817	2369.114397	-169.919183	-130.885603	28872.528651	17131.041025	214.484428	0.000000	1.000000	0.000000	
5.197999	2326.788653	2368.785181	-173.211347	-131.214819	30002.170778	17217.328794	217.300482	0.000000	1.000000	0.000000	
5.300555	2323.449419	2368.451257	-176.550581	-131.548743	31170.107541	17305.071684	220.170796	0.000000	1.000000	0.000000	
5.401731	2320.083240	2368.114639	-179.916760	-131.885361	32370.040438	17393.748320	223.077988	0.000000	1.000000	0.000000	
5.498028	2316.785195	2367.784835	-183.214805	-132.215165	33567.664826	17480.849873	225.939184	0.000000	1.000000	0.000000	
5.600388	2313.456226	2367.451938	-186.543774	-132.548062	34798.579520	17568.988719	228.839612	0.000000	1.000000	0.000000	
5.697877	2310.125611	2364.121323	-189.874389	-135.878677	36052.283596	18463.014912	233.485114	0.000000	1.000000	0.000000	
5.801632	2306.750557	2360.746269	-193.249443	-139.253731	37345.347207	19391.601640	238.195191	0.000000	1.000000	0.000000	
5.900740	2303.450095	2357.445807	-196.549905	-142.554193	38631.865120	20321.697969	242.803548	0.000000	1.000000	0.000000	
6.003994	2300.087423	2354.083135	-199.912577	-145.916865	39965.038353	21291.731480	247.501050	0.000000	1.000000	0.000000	
6.097724	2299.429076	2350.791398	-200.570924	-149.208602	40228.695603	22263.206819	249.983804	0.000000	1.000000	0.000000	
6.197926	2298.761931	2350.124253	-201.238069	-149.875747	40496.760573	22462.739528	250.917317	0.000000	1.000000	0.000000	
6.301541	2298.086736	2349.449058	-201.913264	-150.550942	40768.966220	22665.586038	251.862169	0.000000	0.000000	0.000000	
6.397970	2297.427982	2348.790305	-202.572018	-151.209695	41035.422383	22864.371964	252.784086	0.000000	0.000000	0.000000	
6.500430	2296.760054	2348.122377	-203.239946	-151.877623	41306.475545	23066.812463	253.718915	0.000000	0.000000	0.000000	
6.601309	2296.087409	2347.449731	-203.912591	-152.550269	41580.344898	23271.584538	254.660420	0.000000	0.000000	0.000000	
6.701588	2295.432889	2346.795212	-204.567111	-153.204788	41847.702776	23471.707146	255.576622	0.000000	0.000000	0.000000	
6.800376	2294.759611	2346.121933	-205.240389	-153.878067	42123.617389	23678.459455	256.519155	0.000000	0.000000	0.000000	
6.901367	2294.086721	2345.449044	-205.913279	-154.550956	42400.278321	23885.998066	257.461213	0.000000	0.000000	0.000000	
6.997890	2293.428040	2344.790363	-206.571960	-155.209637	42671.974493	24090.031470	258.383448	0.000000	0.000000	0.000000	
7.100495	2292.760386	2344.122709	-207.239614	-155.877291	42948.257545	24297.729978	259.318313	0.000000	0.000000	0.000000	
7.197499	2292.099079	2343.461402	-207.900921	-156.538598	43222.792918	24504.332816	260.244358	0.000000	0.000000	0.000000	
7.301653	2291.420146	2342.782469	-208.579854	-157.217531	43505.555403	24717.352164	261.195152	0.000000	0.000000	0.000000	
7.400729	2290.758608	2342.120931	-209.241392	-157.879069	43781.960050	24925.800551	262.121652	0.000000	0.000000	0.000000	
7.500568	2290.093563	2341.455885	-209.906437	-158.544115	44060.712314	25136.236280	263.053129	0.000000	0.000000	0.000000	
7.600159	2289.429121	2340.791443	-210.570879	-159.208557	44340.095172	25347.364553	263.983825	0.000000	0.000000	0.000000	
7.701223	2288.760620	2340.122942	-211.239380	-159.877058	44622.075795	25560.673637	264.920270	0.000000	0.000000	0.000000	
7.802879	2288.064925	2339.427247	-211.935075	-160.572753	44916.476014	25783.608867	265.894876	0.000000	0.000000	0.000000	
7.901491	2287.420855	2338.783177	-212.579145	-161.216823	45189.893101	25990.864040	266.797221	0.000000	0.000000	0.000000	
8.003240	2286.761275	2338.123598	-213.238725	-161.876402	45470.753686	26203.969592	267.721354	0.000000	0.000000	0.000000	
8.098073	2286.093929	2337.456251	-213.906071	-162.543749	45755.807181	26420.470177	268.656430	0.000000	0.000000	0.000000	
8.201588	2285.420103	2336.782425	-214.579897	-163.217575	46044.532187	26639.976642	269.600647	0.000000	0.000000	0.000000	
8.300522	2284.760220	2336.122543	-215.239780	-163.877457	46328.162804	26855.821031	270.525385	0.000000	0.000000	0.000000	
8.401487	2284.087519	2335.449841	-215.912481	-164.550159	46618.199439	27076.754676	271.468146	0.000000	0.000000	0.000000	
8.497838	2283.427833	2334.790155	-216.572167	-165.209845	46903.503535	27294.292755	272.392724	0.000000	0.000000	0.000000	
8.597848	2282.761214	2334.123536	-217.238786	-165.876464	47192.690242	27515.001242	273.327078	0.000000	0.000000	0.000000	
8.701328	2282.087084	2333.449406	-217.912916	-166.550594	47486.038937	27739.100201	274.272017	0.000000	0.000000	0.000000	
8.797984	2281.427479	2332.789802	-218.572521	-167.210198	47773.946827	27959.250423	275.196652	0.000000	0.000000	0.000000	
8.900475	2280.760655	2332.122977	-219.239345	-167.877023	48065.890502	28182.694788	276.131464	0.000000	0.000000	0.000000	
8.998396	2280.093321	2331.455644	-219.906679	-168.544356	48358.947338	28407.200031	277.067045	0.000000	0.000000	0.000000	
9.101490	2279.420325	2330.782647	-220.579675	-169.217353	48655.393022	28634.512410	278.010621	0.000000	0.000000	0.000000	
9.200156	2278.761742	2330.124065	-221.238258	-169.875935	48946.366618	28857.833344	278.934042	0.000000	0.000000	0.000000	
9.301266	2278.087921	2329.450243	-221.912079	-170.549757	49244.970963	29087.219587	279.878886	0.000000	0.000000	0.000000	
9.408699	2277.356448	2328.718771	-222.643552	-171.281229	49570.151110	29337.259498	280.904629	0.000000	0.000000	0.000000	
9.500127	2276.761893	2328.124216	-223.238107	-171.875784	49835.252240	29541.285185	281.738420	0.000000	0.000000	0.000000	
9.601552	2276.087990	2327.450313	-223.912010	-172.549687	50136.588060	29773.394555	282.683538	0.000000	0.000000	0.000000	
9.697979	2275.428270	2326.790593	-224.571730	-173.209407	50432.461880	30001.498844	283.608816	0.000000	0.000000	0.000000	
9.800494	2274.760376	2326.122699	-225.239624	-173.877301	50732.888075	30233.315889	284.545610	0.000000	0.000000	0.000000	
9.897912	2274.094715	2325.457038	-225.905285	-174.542962	51033.197704	30465.245715	285.479322	0.000000	0.000000	0.000000	
10.003941	2273.420132	2324.782455	-226.579868	-175.217545	51338.436535	30701.188239	286.425601	0.000000	0.000000	0.000000	
10.100119	2272.762084	2324.124407	-227.237916	-175.875593	51637.070398	30932.224359	287.348734	0.000000	0.000000	0.000000	
10.197970	2272.095076	2323.457398	-227.904924	-176.542602	51940.654497	31167.290258	288.284486	0.000000	0.000000	0.000000	
10.301317	2271.421271	2322.783594	-228.578729	-177.216406	52248.235311	31405.654726	289.229822	0.000000	0.000000	0.000000	
10.400240	2270.761666	2322.123989	-229.238334	-177.876011	52550.213644	31639.875391	290.155284	0.000000	0.000000	0.000000	
10.497731	2270.095855	2321.458178	-229.904145	-178.541822	52855.915677	31877.182243	291.089502	0.000000	0.000000	0.000000	
10.601793	2269.421324	2320.783646	-230.578676	-179.216354	53166.525966	32118.501496	292.036004	0.000000	0.000000	0.000000	
10.700426	2268.760714	2320.123036	-231.239286	-179.876964	53471.607490	32355.722102	292.963017	0.000000	0.000000	0.000000	
10.797937	2268.095194	2319.457516	-231.904806	-180.542484	53779.839140	32595.588447	293.896968	0.000000	0.000000	0.000000	
10.901268	2267.421158	2318.783481	-232.578842	-181.216519	54092.917665	32839.426902	294.842915	0.000000	0.000000	0.000000	
10.999865	2266.762567	2318.124889	-233.237433	-181.875111	54399.700136	33078.555832	295.767233	0.000000	0.000000	0.000000	
11.101137	2266.089280	2317.451602	-233.910720	-182.548398	54714.224979	33323.917493	296.712222	0.000000	0.000000	0.000000	
11.198448	2265.427528	2316.789850	-234.572472	-183.210150	55024.244617	33565.958903	297.641065	0.000000	0.000000	0.000000	
11.338012	2264.762183	2316.124506	-235.237817	-183.875494	55336.830367	33810.197363	298.574995	0.000000	0.000000	0.000000	
11.397892	2264.094811	2315.457134	-235.905189	-184.542866	55651.257995	34056.069444	299.511815	0.000000	0.000000	0.000000	
11.501308	2263.421216	2314.783539	-236.578784	-185.216461	55969.520877	34305.137510	300.457415	0.000000	0.000000	0.000000	
11.600122	2262.761894	2314.124216	-237.238106	-185.875784	56281.919022	34549.806983	301.383022	0.000000	0.000000	0.000000	
11.700573	2262.093068	2313.455390	-237.906932	-186.544610	56599.708452	34798.891484	302.322014	0.000000	0.000000	0.000000	
11.811272	2261.428771	2312.791093	-238.571229	-187.208907	56916.231343	35047.174728	303.254688	0.000000	0.000000	0.000000	
11.898838	2260.761117	2312.123439	-239.238883	-187.876561	57235.243291	35297.602131	304.192119	0.000000	0.000000	0.000000	
12.001028	2260.092111	2311.454433	-239.907889	-188.545567	57555.795258	35549.430716	305.131490	0.000000	0.000000	0.000000	
12.098095	2259.428246	2310.790569	-240.571754	-189.209431	57874.768761	35800.208947	306.063682	0.000000	0.000000	0.000000	
12.199818	2258.762431	2310.124753	-241.237569	-189.875247	58195.564685	36052.609251	306.998655	0.000000	0.000000	0.000000	
12.297789	2258.095401	2309.457724	-241.904599	-190.542276	58517.834904	36306.359071	307.935373	0.000000	0.000000	0.000000	
12.401105	2257.421468	2308.783791	-242.578532	-191.216209	58844.344061	36563.638703	308.881827	0.000000	0.000000	0.000000	
12.500034	2256.762137	2308.124460	-243.237863	-191.875540	59164.657904	36816.222996	309.807813	0.000000	0.000000	0.000000	
12.619185	2256.096130	2307.458452	-243.903870	-192.541548	59489.097987	37072.247688	310.743215	0.000000	0.000000	0.000000	
12.697624	2255.429361	2306.791683	-244.570639	-193.208317	59814.797593	37329.453696	311.679726	0.000000	0.000000	0.000000	
12.808898	2254.761694	2306.124016	-245.238306	-193.875984	60141.826897	37587.897138	312.617536	0.000000	0.000000	0.000000	
12.897138	2254.100836	2305.463158	-245.899164	-194.536842	60466.399016	37844.582855	313.545821	0.000000	0.000000	0.000000	
13.003620	2253.419824	2304.782147	-246.580176	-195.217853	60801.783119	38110.010291	314.502454	0.000000	0.000000	0.000000	
13.100489	2252.762242	2304.124565	-247.237758	-195.875435	61126.508780	38367.186101	315.426211	0.000000	0.000000	0.000000	
13.197869	2252.094943	2303.457266	-247.905057	-196.542734	61456.917206	38629.046449	316.363657	0.000000	0.000000	0.000000	
13.297656	2251.429286	2302.791609	-248.570714	-197.208391	61787.399705	38891.149584	317.298833	0.000000	0.000000	0.000000	
13.400630	2250.761555	2302.123878	-249.238445	-197.876122	62119.802426	39154.959851	318.236959	0.000000	0.000000	0.000000	
13.520811	2250.095552	2301.457874	-249.904448	-198.542126	62452.233236	39418.975710	319.172695	0.000000	0.000000	0.000000	
13.599526	2249.428804	2300.791127	-250.571196	-199.208873	62785.924122	39684.175196	320.109511	0.000000	0.000000	0.000000	
13.700164	2248.761727	2300.124050	-251.238273	-199.875950	63120.669595	39950.395438	321.046827	0.000000	0.000000	0.000000	
13.801068	2248.088055	2299.450378	-251.911945	-200.549622	63459.627845	40220.150963	321.993445	0.000000	0.000000	0.000000	
13.898094	2247.427672	2298.789995	-252.572328	-201.210005	63792.780798	40485.466283	322.921426	0.000000	0.000000	0.000000	
14.002589	2246.762114	2298.124436	-253.237886	-201.875564	64129.427075	40753.743302	323.856713	0.000000	0.000000	0.000000	
14.133950	2245.854405	2297.216727	-254.145595	-202.783273	64589.983543	41121.055702	325.132341	0.000000	0.000000	0.000000	
14.198095	2245.427810	2296.790133	-254.572190	-203.209867	64806.999772	41294.250158	325.731868	0.000000	0.000000	0.000000	
14.300059	2244.761871	2296.124194	-255.238129	-203.875806	65146.502416	41565.344441	326.667793	0.000000	0.000000	0.000000	
14.401277	2244.088250	2295.450573	-255.911750	-204.549427	65490.823579	41840.468152	327.614547	0.000000	0.000000	0.000000	
14.497804	2243.428855	2294.791178	-256.571145	-205.208822	65828.752354	42110.660786	328.541342	0.000000	0.000000	0.000000	
14.600163	2242.761697	2294.124020	-257.238303	-205.875980	66171.544489	42384.919343	329.479080	0.000000	0.000000	0.000000	
14.701100	2242.088265	2293.450587	-257.911735	-206.549413	66518.463297	42662.660030	330.425670	0.000000	0.000000	0.000000	
14.797810	2241.428929	2292.791252	-258.571071	-207.208748	66858.998668	42935.465412	331.352477	0.000000	0.000000	0.000000	
14.900404	2240.760539	2292.122862	-259.239461	-207.877138	67205.097995	43212.904625	332.292044	0.000000	0.000000	0.000000	
15.000423	2240.093762	2291.456084	-259.906238	-208.543916	67551.252637	43490.564790	333.229377	0.000000	0.000000	0.000000	
15.097794	2239.428819	2290.791142	-260.571181	-209.208858	67897.340235	43768.346398	334.164161	0.000000	0.000000	0.000000	
15.200290	2238.760784	2290.123107	-261.239216	-209.876893	68245.927791	44048.310306	335.103325	0.000000	0.000000	0.000000	
15.301209	2238.088036	2289.450359	-261.911964	-210.549641	68597.876820	44331.151512	336.049146	0.000000	0.000000	0.000000	
15.397955	2237.428081	2288.790403	-262.571919	-211.209597	68944.012855	44609.493850	336.977012	0.000000	0.000000	0.000000	
15.500381	2236.761684	2288.124006	-263.238316	-211.875994	69294.411105	44891.436727	337.913965	0.000000	0.000000	0.000000	
15.598929	2236.092918	2287.455240	-263.907082	-212.544760	69646.948171	45175.275015	338.854280	0.000000	0.000000	0.000000	
15.701572	2235.420332	2286.782654	-264.579668	-213.217346	70002.400801	45461.636518	339.799996	0.000000	0.000000	0.000000	
15.800282	2234.760860	2286.123182	-265.239140	-213.876818	70351.801584	45743.293252	340.727303	0.000000	0.000000	0.000000	
