AF-MATB V. 3.03
Programmed using MATLAB 7.5.0 and other Custom MATLAB Functions.

William Daniel Miller, Jr.
Air Force Research Laboratory
711th Human Performance Wing
Human Effectiveness Directorate
Applied Neuroscience Branch

RMS Target Value is:	2500.000000	
Main Tank Automation Lower Limit is:	2350.000000	
Main Tank Automation Upper Limit is:	2650.000000	


Event Time	Tank A Value	Tank B Value	Tank A Difference	Tank B Difference	Tank A Deviation	Tank B Deviation	Euclidian Distance From Target	Tank A In Range?	Tank B In Range?	Both In Range?
0.091398	2499.603046	2499.603046	-0.396954	-0.396954	0.157573	0.157573	0.561378	1.000000	1.000000	1.000000	
0.103847	2496.656532	2496.656532	-3.343468	-3.343468	11.178777	11.178777	4.728378	1.000000	1.000000	1.000000	
0.199388	2493.420526	2493.420526	-6.579474	-6.579474	43.289483	43.289483	9.304782	1.000000	1.000000	1.000000	
0.302426	2490.063949	2490.063949	-9.936051	-9.936051	98.725118	98.725118	14.051699	1.000000	1.000000	1.000000	
0.398545	2486.769688	2486.769688	-13.230312	-13.230312	175.041146	175.041146	18.710486	1.000000	1.000000	1.000000	
0.498688	2483.430091	2483.430091	-16.569909	-16.569909	274.561876	274.561876	23.433390	1.000000	1.000000	1.000000	
0.602359	2480.059699	2480.059699	-19.940301	-19.940301	397.615593	397.615593	28.199844	1.000000	1.000000	1.000000	
0.698761	2476.766059	2476.766059	-23.233941	-23.233941	539.816002	539.816002	32.857754	1.000000	1.000000	1.000000	
0.798403	2473.437240	2473.437240	-26.562760	-26.562760	705.580199	705.580199	37.565415	1.000000	1.000000	1.000000	
0.898429	2470.102412	2470.102412	-29.897588	-29.897588	893.865756	893.865756	42.281574	1.000000	1.000000	1.000000	
0.998511	2466.769038	2466.769038	-33.230962	-33.230962	1104.296820	1104.296820	46.995677	1.000000	1.000000	1.000000	
1.102974	2463.438295	2463.438295	-36.561705	-36.561705	1336.758297	1336.758297	51.706060	1.000000	1.000000	1.000000	
1.200797	2460.098911	2460.098911	-39.901089	-39.901089	1592.096870	1592.096870	56.428661	1.000000	1.000000	1.000000	
1.298634	2456.767954	2456.767954	-43.232046	-43.232046	1869.009801	1869.009801	61.139346	1.000000	1.000000	1.000000	
1.398454	2453.436804	2453.436804	-46.563196	-46.563196	2168.131212	2168.131212	65.850303	1.000000	1.000000	1.000000	
1.498526	2450.103901	2450.103901	-49.896099	-49.896099	2489.620733	2489.620733	70.563740	1.000000	1.000000	1.000000	
1.599191	2446.767682	2446.767682	-53.232318	-53.232318	2833.679636	2833.679636	75.281865	1.000000	1.000000	1.000000	
1.698496	2443.440532	2443.440532	-56.559468	-56.559468	3198.973469	3198.973469	79.987167	1.000000	1.000000	1.000000	
1.802140	2440.064964	2440.064964	-59.935036	-59.935036	3592.208498	3592.208498	84.760940	1.000000	1.000000	1.000000	
1.898414	2436.774126	2436.774126	-63.225874	-63.225874	3997.511168	3997.511168	89.414889	1.000000	1.000000	1.000000	
1.998527	2433.439490	2433.439490	-66.560510	-66.560510	4430.301477	4430.301477	94.130776	1.000000	1.000000	1.000000	
2.106033	2430.028252	2430.028252	-69.971748	-69.971748	4896.045496	4896.045496	98.954995	1.000000	1.000000	1.000000	
2.198468	2426.772977	2426.772977	-73.227023	-73.227023	5362.196837	5362.196837	103.558648	1.000000	1.000000	1.000000	
2.298528	2423.436053	2423.436053	-76.563947	-76.563947	5862.037906	5862.037906	108.277772	1.000000	1.000000	1.000000	
2.398483	2420.105930	2420.105930	-79.894070	-79.894070	6383.062407	6383.062407	112.987277	1.000000	1.000000	1.000000	
2.502026	2416.736736	2416.736736	-83.263264	-83.263264	6932.771182	6932.771182	117.752038	1.000000	1.000000	1.000000	
2.598446	2413.439717	2413.439717	-86.560283	-86.560283	7492.682629	7492.682629	122.414726	1.000000	1.000000	1.000000	
2.701899	2410.065582	2410.065582	-89.934418	-89.934418	8088.199471	8088.199471	127.186473	1.000000	1.000000	1.000000	
2.817304	2406.221334	2406.221334	-93.778666	-93.778666	8794.438140	8794.438140	132.623061	1.000000	1.000000	1.000000	
2.897753	2403.466155	2403.466155	-96.533845	-96.533845	9318.783139	9318.783139	136.519472	1.000000	1.000000	1.000000	
2.998487	2400.104553	2400.104553	-99.895447	-99.895447	9979.100357	9979.100357	141.273496	1.000000	1.000000	1.000000	
3.099285	2396.746607	2396.746607	-103.253393	-103.253393	10661.263132	10661.263132	146.022349	1.000000	1.000000	1.000000	
3.198705	2393.435624	2393.435624	-106.564376	-106.564376	11355.966309	11355.966309	150.704786	1.000000	1.000000	1.000000	
3.301771	2390.071733	2390.071733	-109.928267	-109.928267	12084.223928	12084.223928	155.462046	1.000000	1.000000	1.000000	
3.398447	2386.773003	2386.773003	-113.226997	-113.226997	12820.352833	12820.352833	160.127155	1.000000	1.000000	1.000000	
3.498424	2383.439522	2383.439522	-116.560478	-116.560478	13586.344989	13586.344989	164.841409	1.000000	1.000000	1.000000	
3.602575	2380.057710	2380.057710	-119.942290	-119.942290	14386.152823	14386.152823	169.624013	1.000000	1.000000	1.000000	
3.698212	2376.790652	2376.790652	-123.209348	-123.209348	15180.543339	15180.543339	174.244330	1.000000	1.000000	1.000000	
3.798543	2373.439678	2373.439678	-126.560322	-126.560322	16017.515030	16017.515030	178.983323	1.000000	1.000000	1.000000	
3.898523	2370.102605	2370.102605	-129.897395	-129.897395	16873.333314	16873.333314	183.702658	1.000000	1.000000	1.000000	
3.998405	2366.774898	2366.774898	-133.225102	-133.225102	17748.927852	17748.927852	188.408746	1.000000	1.000000	1.000000	
4.103280	2363.401576	2363.401576	-136.598424	-136.598424	18659.129424	18659.129424	193.179344	1.000000	1.000000	1.000000	
4.198347	2360.109561	2360.109561	-139.890439	-139.890439	19569.334835	19569.334835	197.834956	1.000000	1.000000	1.000000	
4.298551	2356.768574	2356.768574	-143.231426	-143.231426	20515.241344	20515.241344	202.559825	1.000000	1.000000	1.000000	
4.398497	2353.437467	2353.437467	-146.562533	-146.562533	21480.576064	21480.576064	207.270722	1.000000	1.000000	1.000000	
4.501874	2350.068465	2350.068465	-149.931535	-149.931535	22479.465148	22479.465148	212.035210	1.000000	1.000000	1.000000	
4.598768	2346.769115	2346.769115	-153.230885	-153.230885	23479.704050	23479.704050	216.701195	0.000000	0.000000	0.000000	
4.698106	2343.455950	2343.455950	-156.544050	-156.544050	24506.039467	24506.039467	221.386718	0.000000	0.000000	0.000000	
4.801007	2342.784314	2340.097769	-157.215686	-159.902231	24716.771860	25568.723336	224.244276	0.000000	0.000000	0.000000	
4.898535	2342.119453	2336.773463	-157.880547	-163.226537	24926.267157	26642.902427	227.088462	0.000000	0.000000	0.000000	
4.998334	2341.453394	2333.443168	-158.546606	-166.556832	25137.026277	27741.178159	229.952613	0.000000	0.000000	0.000000	
5.098610	2340.785714	2330.104769	-159.214286	-169.895231	25349.188839	28864.389563	232.838095	0.000000	0.000000	0.000000	
5.198422	2340.119630	2326.774346	-159.880370	-173.225654	25561.732862	30007.127178	235.730482	0.000000	0.000000	0.000000	
5.301129	2339.444195	2323.397175	-160.555805	-176.602825	25778.166421	31188.557814	238.677029	0.000000	0.000000	0.000000	
5.401735	2338.779009	2320.071243	-161.220991	-179.928757	25992.207961	32374.357565	241.591733	0.000000	0.000000	0.000000	
5.498374	2338.119430	2316.773347	-161.880570	-183.226653	26205.319011	33572.006231	244.494019	0.000000	0.000000	0.000000	
5.598468	2337.452357	2313.437985	-162.547643	-186.562015	26421.736170	34805.385598	247.441148	0.000000	0.000000	0.000000	
5.702016	2336.778074	2310.066566	-163.221926	-189.933434	26641.397278	36074.709308	250.431840	0.000000	0.000000	0.000000	
5.798426	2336.119474	2306.773568	-163.880526	-193.226432	26856.826853	37336.454159	253.363930	0.000000	0.000000	0.000000	
5.898464	2335.452936	2303.440878	-164.547064	-196.559122	27075.736298	38635.488436	256.342007	0.000000	0.000000	0.000000	
6.001840	2334.779337	2300.072881	-165.220663	-199.927119	27297.867629	39970.852831	259.362142	0.000000	0.000000	0.000000	
6.107132	2337.083956	2296.780567	-162.916044	-203.219433	26541.637247	41298.137922	260.460698	0.000000	0.000000	0.000000	
6.198491	2339.422079	2293.440393	-160.577921	-206.559607	25785.268842	42666.871423	261.633599	0.000000	0.000000	0.000000	
6.300677	2341.808448	2290.031293	-158.191552	-209.968707	25024.567065	44086.857856	262.890519	0.000000	0.000000	0.000000	
6.398321	2344.086691	2286.776660	-155.913309	-213.223340	24308.959793	45464.192735	264.146082	0.000000	0.000000	0.000000	
6.498996	2346.434948	2283.422008	-153.565052	-216.577992	23582.225173	46906.026792	265.496237	0.000000	0.000000	0.000000	
6.598577	2348.756169	2280.105977	-151.243831	-219.894023	22874.696295	48353.381292	266.885889	0.000000	0.000000	0.000000	
6.705120	2351.191355	2276.627140	-148.808645	-223.372860	22144.012743	49895.434512	268.401653	1.000000	0.000000	0.000000	
6.798367	2353.419480	2273.444105	-146.580520	-226.555895	21485.848887	51327.573532	269.839624	1.000000	0.000000	0.000000	
6.901822	2355.781209	2270.070206	-144.218791	-229.929794	20799.059600	52867.710217	271.416230	1.000000	0.000000	0.000000	
6.998700	2358.092820	2266.767905	-141.907180	-233.232095	20137.647728	54397.210225	273.010729	1.000000	0.000000	0.000000	
7.098394	2360.421826	2263.440754	-139.578174	-236.559246	19482.066766	55960.276878	274.667697	1.000000	0.000000	0.000000	
7.201506	2362.775636	2260.078168	-137.224364	-239.921832	18830.526065	57562.485636	276.392858	1.000000	0.000000	0.000000	
7.319793	2365.101842	2256.755016	-134.898158	-243.244984	18197.512956	59168.122302	278.146787	1.000000	0.000000	0.000000	
7.399129	2367.426282	2253.434388	-132.573718	-246.565612	17575.790678	60794.601235	279.947123	1.000000	0.000000	0.000000	
7.501956	2369.783491	2250.066947	-130.216509	-249.933053	16956.339306	62466.531096	281.820635	1.000000	0.000000	0.000000	
7.598908	2372.091164	2246.770270	-127.908836	-253.229730	16360.670231	64125.296140	283.700487	1.000000	0.000000	0.000000	
7.698478	2374.422909	2243.439206	-125.577091	-256.560794	15769.605679	65823.441182	285.644966	1.000000	0.000000	0.000000	
7.798548	2376.756092	2240.106088	-123.243908	-259.893912	15189.060968	67544.845318	287.635023	1.000000	0.000000	0.000000	
7.898464	2379.087911	2236.774917	-120.912089	-263.225083	14619.733157	69287.444288	289.667357	1.000000	0.000000	0.000000	
7.998775	2381.422411	2233.439918	-118.577589	-266.560082	14060.644631	71054.277416	291.744618	1.000000	0.000000	0.000000	
8.104600	2383.781670	2230.069547	-116.218330	-269.930453	13506.700150	72862.449334	293.886287	1.000000	0.000000	0.000000	
8.198643	2386.088715	2226.773769	-113.911285	-273.226231	12975.780776	74652.573487	296.020868	1.000000	0.000000	0.000000	
8.302397	2388.453064	2223.396127	-111.546936	-276.603873	12442.718832	76509.702518	298.248925	1.000000	0.000000	0.000000	
8.398220	2390.753957	2222.738729	-109.246043	-277.261271	11934.697939	76873.812265	298.007567	1.000000	0.000000	0.000000	
8.501974	2393.117049	2222.063560	-106.882951	-277.936440	11423.965314	77248.664574	297.779499	1.000000	0.000000	0.000000	
8.598702	2395.424707	2221.404229	-104.575293	-278.595771	10935.991847	77615.603552	297.576201	1.000000	0.000000	0.000000	
8.699530	2397.776422	2220.732311	-102.223578	-279.267689	10449.659910	77990.442318	297.388806	1.000000	0.000000	0.000000	
8.801204	2400.102658	2220.067672	-99.897342	-279.932328	9979.478912	78362.108408	297.223127	1.000000	0.000000	0.000000	
8.898861	2402.434403	2219.401459	-97.565597	-280.598541	9519.045683	78735.541287	297.076736	1.000000	0.000000	0.000000	
9.001895	2404.783154	2218.730387	-95.216846	-281.269613	9066.247793	79112.595058	296.949226	1.000000	0.000000	0.000000	
9.120186	2407.087609	2218.071971	-92.912391	-281.928029	8632.712390	79483.413272	296.843605	1.000000	0.000000	0.000000	
9.198763	2409.427123	2217.403539	-90.572877	-282.596461	8203.445976	79860.759882	296.756139	1.000000	0.000000	0.000000	
9.301772	2411.779931	2216.731308	-88.220069	-283.268692	7782.780600	80241.151811	296.688275	1.000000	0.000000	0.000000	
9.398339	2414.088188	2216.071806	-85.911812	-283.928194	7380.839374	80615.219379	296.641296	1.000000	0.000000	0.000000	
9.501913	2416.447493	2215.397719	-83.552507	-284.602281	6981.021475	80998.458352	296.613351	1.000000	0.000000	0.000000	
9.598575	2418.752337	2214.739192	-81.247663	-285.260808	6601.182719	81373.728572	296.605649	1.000000	0.000000	0.000000	
9.697798	2421.075265	2214.075498	-78.924735	-285.924502	6229.113791	81752.820651	296.617488	1.000000	0.000000	0.000000	
9.798686	2423.422998	2213.404718	-76.577002	-286.595282	5864.037275	82136.855916	296.649445	1.000000	0.000000	0.000000	
9.898841	2425.765940	2212.735305	-74.234060	-287.264695	5510.695643	82521.004737	296.701366	1.000000	0.000000	0.000000	
10.001932	2428.115484	2212.064007	-71.884516	-287.935993	5167.383612	82907.135982	296.773516	1.000000	0.000000	0.000000	
10.100682	2430.441915	2211.399313	-69.558085	-288.600687	4838.327191	83290.356749	296.864757	1.000000	0.000000	0.000000	
10.198558	2432.754828	2210.738480	-67.245172	-289.261520	4521.913142	83672.226773	296.974982	1.000000	0.000000	0.000000	
10.301955	2435.113504	2210.064573	-64.886496	-289.935427	4210.257402	84062.551830	297.107404	1.000000	0.000000	0.000000	
10.398642	2437.420519	2209.405426	-62.579481	-290.594574	3916.191473	84445.206530	297.256452	1.000000	0.000000	0.000000	
10.501969	2439.782637	2208.730535	-60.217363	-291.269465	3626.130761	84837.901354	297.429037	1.000000	0.000000	0.000000	
10.598239	2442.087572	2208.071982	-57.912428	-291.928018	3353.849359	85221.967599	297.616896	1.000000	0.000000	0.000000	
10.701525	2444.445334	2207.398336	-55.554666	-292.601664	3086.320906	85615.733921	297.828902	1.000000	0.000000	0.000000	
10.798070	2446.751122	2206.739539	-53.248878	-293.260461	2835.443050	86001.697802	298.055600	1.000000	0.000000	0.000000	
10.898326	2449.087926	2206.071881	-50.912074	-293.928119	2592.039236	86393.739260	298.304842	1.000000	0.000000	0.000000	
11.002063	2451.450315	2205.396913	-48.549685	-294.603087	2357.071962	86790.979005	298.576709	1.000000	0.000000	0.000000	
11.101801	2453.779440	2204.731448	-46.220560	-295.268552	2136.340181	87183.517571	298.864280	1.000000	0.000000	0.000000	
11.198330	2456.087578	2204.071980	-43.912422	-295.928020	1928.300839	87573.392755	299.168337	1.000000	0.000000	0.000000	
11.298401	2458.422047	2203.404989	-41.577953	-296.595011	1728.726162	87968.600458	299.495120	1.000000	0.000000	0.000000	
11.398209	2460.751681	2202.739379	-39.248319	-297.260621	1540.430507	88363.876589	299.840469	1.000000	0.000000	0.000000	
11.504024	2463.096854	2202.069330	-36.903146	-297.930670	1361.842158	88762.684155	300.207472	1.000000	0.000000	0.000000	
11.598572	2465.420980	2201.405294	-34.579020	-298.594706	1195.708637	89158.798386	300.590264	1.000000	0.000000	0.000000	
11.701949	2467.782365	2200.730613	-32.217635	-299.269387	1037.976009	89562.166205	300.998575	1.000000	0.000000	0.000000	
11.798351	2470.087913	2200.071885	-29.912087	-299.928115	894.732952	89956.874381	301.416004	1.000000	0.000000	0.000000	
11.898206	2472.418880	2199.405894	-27.581120	-300.594106	760.718204	90356.816453	301.856812	1.000000	0.000000	0.000000	
12.001089	2474.761837	2198.736478	-25.238163	-301.263522	636.964875	90759.709815	302.318830	1.000000	0.000000	0.000000	
12.098777	2477.066532	2198.077994	-22.933468	-301.922006	525.943969	91156.897962	302.791747	1.000000	0.000000	0.000000	
12.198411	2479.420372	2197.405468	-20.579628	-302.594532	423.521087	91563.450943	303.293541	1.000000	0.000000	0.000000	
12.298916	2481.767775	2196.734781	-18.232225	-303.265219	332.414013	91969.793008	303.812783	1.000000	0.000000	0.000000	
12.398677	2484.090599	2196.071117	-15.909401	-303.928883	253.109056	92372.765716	304.344993	1.000000	0.000000	0.000000	
12.499094	2486.439499	2195.400003	-13.560501	-304.599997	183.887191	92781.158202	304.901698	1.000000	0.000000	0.000000	
12.598460	2488.754792	2194.738491	-11.245208	-305.261509	126.454699	93184.589136	305.468564	1.000000	0.000000	0.000000	
12.701845	2491.106941	2194.066448	-8.893059	-305.933552	79.086499	93595.338199	306.062779	1.000000	0.000000	0.000000	
12.798685	2493.420303	2193.405487	-6.579697	-306.594513	43.292410	94000.195136	306.665107	1.000000	0.000000	0.000000	
12.901579	2495.779084	2192.731550	-4.220916	-307.268450	17.816136	94413.900254	307.297440	1.000000	0.000000	0.000000	
12.998284	2498.087146	2192.072104	-1.912854	-307.927896	3.659009	94819.589363	307.933838	1.000000	0.000000	0.000000	
13.098394	2500.422829	2191.404766	0.422829	-308.595234	0.178784	95231.018514	308.595524	1.000000	0.000000	0.000000	
13.201880	2502.780546	2190.731132	2.780546	-309.268868	7.731437	95647.232521	309.281367	1.000000	0.000000	0.000000	
13.298961	2505.101588	2190.067978	5.101588	-309.932022	26.026198	96057.858543	309.974007	1.000000	0.000000	0.000000	
13.398734	2507.421761	2189.405071	7.421761	-310.594929	55.082540	96469.210016	310.683589	1.000000	0.000000	0.000000	
13.501449	2509.772114	2188.733542	9.772114	-311.266458	95.494205	96886.808135	311.419817	1.000000	0.000000	0.000000	
13.598285	2512.086584	2188.072264	12.086584	-311.927736	146.085504	97298.912207	312.161813	1.000000	0.000000	0.000000	
13.697640	2514.404482	2187.410008	14.404482	-312.589992	207.489092	97712.503184	312.921703	1.000000	0.000000	0.000000	
13.802452	2516.788516	2186.728855	16.788516	-313.271145	281.854269	98138.810163	313.720679	1.000000	0.000000	0.000000	
13.898558	2519.089902	2186.071316	19.089902	-313.928684	364.424375	98551.218499	314.508574	1.000000	0.000000	0.000000	
13.998343	2521.420195	2185.405518	21.420195	-314.594482	458.824771	98969.687962	315.322871	1.000000	0.000000	0.000000	
14.110944	2524.007549	2184.666274	24.007549	-315.333726	576.362389	99435.358463	316.246298	1.000000	0.000000	0.000000	
14.198656	2526.089554	2184.071416	26.089554	-315.928584	680.664809	99810.870266	317.003999	1.000000	0.000000	0.000000	
14.298519	2528.426134	2183.403822	28.426134	-316.596178	808.045088	100233.140231	317.869762	1.000000	0.000000	0.000000	
14.401167	2530.764855	2182.735616	30.764855	-317.264384	946.476293	100656.689651	318.752515	1.000000	0.000000	0.000000	
14.498386	2533.087843	2182.071905	33.087843	-317.928095	1094.805327	101078.273752	319.645239	1.000000	0.000000	0.000000	
14.598369	2535.422971	2181.404725	35.422971	-318.595275	1254.786860	101502.949087	320.558475	1.000000	0.000000	0.000000	
14.701782	2537.781572	2180.730839	37.781572	-319.269161	1427.447148	101932.796953	321.496880	1.000000	0.000000	0.000000	
14.799028	2540.099410	2180.068600	40.099410	-319.931400	1607.962658	102356.100797	322.434588	1.000000	0.000000	0.000000	
15.011930	2542.421380	2179.405180	42.421380	-320.594820	1799.573440	102781.038668	323.389258	1.000000	0.000000	0.000000	
15.016958	2545.157277	2178.623495	45.157277	-321.376505	2039.179696	103282.858081	324.533570	1.000000	0.000000	0.000000	
15.100151	2547.127189	2178.060663	47.127189	-321.939337	2220.971946	103644.936768	325.370418	1.000000	0.000000	0.000000	
15.199959	2549.461015	2177.393856	49.461015	-322.606144	2446.391992	104074.724453	326.375729	1.000000	0.000000	0.000000	
15.303176	2551.815319	2176.721197	51.815319	-323.278803	2684.827314	104509.184394	327.404966	1.000000	0.000000	0.000000	
15.399709	2554.122888	2176.061892	54.122888	-323.938108	2929.287030	104935.898004	328.428356	1.000000	0.000000	0.000000	
15.499846	2556.457927	2175.394738	56.457927	-324.605262	3187.497477	105368.576194	329.478487	1.000000	0.000000	0.000000	
15.603334	2558.819911	2174.719885	58.819911	-325.280115	3459.781873	105807.152993	330.555494	1.000000	0.000000	0.000000	
15.699989	2561.124276	2174.061495	61.124276	-325.938505	3736.177107	106235.908896	331.620394	1.000000	0.000000	0.000000	
15.799869	2563.458566	2173.394555	63.458566	-326.605445	4026.989576	106671.116539	332.713249	1.000000	0.000000	0.000000	
15.904646	2565.816208	2172.720943	65.816208	-327.279057	4331.773301	107111.581112	333.831326	1.000000	0.000000	0.000000	
