AF-MATB V. 3.03
Programmed using MATLAB 7.5.0 and other Custom MATLAB Functions.

William Daniel Miller, Jr.
Air Force Research Laboratory
711th Human Performance Wing
Human Effectiveness Directorate
Applied Neuroscience Branch

RMS Target Value is:	2500.000000	
Main Tank Automation Lower Limit is:	2350.000000	
Main Tank Automation Upper Limit is:	2650.000000	


Event Time	Tank A Value	Tank B Value	Tank A Difference	Tank B Difference	Tank A Deviation	Tank B Deviation	Euclidian Distance From Target	Tank A In Range?	Tank B In Range?	Both In Range?
0.092504	2499.601164	2499.601164	-0.398836	-0.398836	0.159070	0.159070	0.564040	1.000000	1.000000	1.000000	
0.103639	2496.660146	2496.660146	-3.339854	-3.339854	11.154623	11.154623	4.723266	1.000000	1.000000	1.000000	
0.201302	2493.429529	2493.429529	-6.570471	-6.570471	43.171092	43.171092	9.292049	1.000000	1.000000	1.000000	
0.298784	2490.098400	2490.098400	-9.901600	-9.901600	98.041676	98.041676	14.002977	1.000000	1.000000	1.000000	
0.402175	2486.732072	2486.732072	-13.267928	-13.267928	176.037925	176.037925	18.763684	1.000000	1.000000	1.000000	
0.498583	2483.434518	2483.434518	-16.565482	-16.565482	274.415193	274.415193	23.427129	1.000000	1.000000	1.000000	
0.598845	2480.097337	2480.097337	-19.902663	-19.902663	396.115976	396.115976	28.146615	1.000000	1.000000	1.000000	
0.701724	2476.735735	2476.735735	-23.264265	-23.264265	541.226032	541.226032	32.900639	1.000000	1.000000	1.000000	
0.797977	2473.465041	2473.465041	-26.534959	-26.534959	704.104033	704.104033	37.526098	1.000000	1.000000	1.000000	
0.902045	2470.061545	2470.061545	-29.938455	-29.938455	896.311098	896.311098	42.339369	1.000000	1.000000	1.000000	
1.001924	2466.736447	2466.736447	-33.263553	-33.263553	1106.463959	1106.463959	47.041768	1.000000	1.000000	1.000000	
1.101219	2463.434723	2463.434723	-36.565277	-36.565277	1337.019459	1337.019459	51.711110	1.000000	1.000000	1.000000	
1.198936	2460.099510	2460.099510	-39.900490	-39.900490	1592.049085	1592.049085	56.427814	1.000000	1.000000	1.000000	
1.302414	2456.731000	2456.731000	-43.269000	-43.269000	1872.206348	1872.206348	61.191606	1.000000	1.000000	1.000000	
1.398416	2453.440204	2453.440204	-46.559796	-46.559796	2167.814569	2167.814569	65.845494	1.000000	1.000000	1.000000	
1.507071	2450.067909	2450.067909	-49.932091	-49.932091	2493.213700	2493.213700	70.614640	1.000000	1.000000	1.000000	
1.602470	2446.728547	2446.728547	-53.271453	-53.271453	2837.847678	2837.847678	75.337211	1.000000	1.000000	1.000000	
1.698702	2443.439804	2443.439804	-56.560196	-56.560196	3199.055718	3199.055718	79.988196	1.000000	1.000000	1.000000	
1.798582	2440.101384	2440.101384	-59.898616	-59.898616	3587.844251	3587.844251	84.709436	1.000000	1.000000	1.000000	
1.898646	2436.768138	2436.768138	-63.231862	-63.231862	3998.268383	3998.268383	89.423357	1.000000	1.000000	1.000000	
1.998437	2433.442484	2433.442484	-66.557516	-66.557516	4429.902929	4429.902929	94.126542	1.000000	1.000000	1.000000	
2.104737	2430.102866	2430.102866	-69.897134	-69.897134	4885.609402	4885.609402	98.849475	1.000000	1.000000	1.000000	
2.198844	2426.766027	2426.766027	-73.233973	-73.233973	5363.214775	5363.214775	103.568478	1.000000	1.000000	1.000000	
2.302095	2423.399164	2423.399164	-76.600836	-76.600836	5867.688108	5867.688108	108.329941	1.000000	1.000000	1.000000	
2.398473	2420.105845	2420.105845	-79.894155	-79.894155	6383.076076	6383.076076	112.987398	1.000000	1.000000	1.000000	
2.502033	2416.734811	2416.734811	-83.265189	-83.265189	6933.091696	6933.091696	117.754760	1.000000	1.000000	1.000000	
2.598647	2413.434627	2413.434627	-86.565373	-86.565373	7493.563789	7493.563789	122.421924	1.000000	1.000000	1.000000	
2.701986	2410.065369	2410.065369	-89.934631	-89.934631	8088.237937	8088.237937	127.186776	1.000000	1.000000	1.000000	
2.798586	2406.766254	2406.766254	-93.233746	-93.233746	8692.531418	8692.531418	131.852428	1.000000	1.000000	1.000000	
2.898593	2403.436964	2403.436964	-96.563036	-96.563036	9324.419825	9324.419825	136.560754	1.000000	1.000000	1.000000	
3.001850	2400.071598	2400.071598	-99.928402	-99.928402	9985.685510	9985.685510	141.320101	1.000000	1.000000	1.000000	
3.098603	2396.771286	2396.771286	-103.228714	-103.228714	10656.167428	10656.167428	145.987448	1.000000	1.000000	1.000000	
3.201846	2393.405043	2393.405043	-106.594957	-106.594957	11362.484939	11362.484939	150.748034	1.000000	1.000000	1.000000	
3.298505	2390.102934	2390.102934	-109.897066	-109.897066	12077.365115	12077.365115	155.417921	1.000000	1.000000	1.000000	
3.402881	2386.728564	2386.728564	-113.271436	-113.271436	12830.418131	12830.418131	160.190001	1.000000	1.000000	1.000000	
3.539376	2382.078474	2382.078474	-117.921526	-117.921526	13905.486219	13905.486219	166.766221	1.000000	1.000000	1.000000	
3.598421	2380.107431	2380.107431	-119.892569	-119.892569	14374.228020	14374.228020	169.553697	1.000000	1.000000	1.000000	
3.701905	2376.736911	2376.736911	-123.263089	-123.263089	15193.789096	15193.789096	174.320332	1.000000	1.000000	1.000000	
3.798360	2373.441026	2373.441026	-126.558974	-126.558974	16017.174008	16017.174008	178.981418	1.000000	1.000000	1.000000	
3.919435	2370.105406	2370.105406	-129.894594	-129.894594	16872.605512	16872.605512	183.698696	1.000000	1.000000	1.000000	
4.000649	2366.767392	2366.767392	-133.232608	-133.232608	17750.927950	17750.927950	188.419362	1.000000	1.000000	1.000000	
4.100190	2363.433611	2363.433611	-136.566389	-136.566389	18650.378528	18650.378528	193.134039	1.000000	1.000000	1.000000	
4.198434	2360.106161	2360.106161	-139.893839	-139.893839	19570.286176	19570.286176	197.839764	1.000000	1.000000	1.000000	
4.298767	2356.769323	2356.769323	-143.230677	-143.230677	20515.026931	20515.026931	202.558766	1.000000	1.000000	1.000000	
4.399395	2353.431586	2353.431586	-146.568414	-146.568414	21482.299957	21482.299957	207.279039	1.000000	1.000000	1.000000	
4.498489	2350.104286	2350.104286	-149.895714	-149.895714	22468.725209	22468.725209	211.984552	1.000000	1.000000	1.000000	
4.598450	2346.770270	2346.770270	-153.229730	-153.229730	23479.350147	23479.350147	216.699562	0.000000	0.000000	0.000000	
4.701756	2343.404647	2343.404647	-156.595353	-156.595353	24522.104585	24522.104585	221.459272	0.000000	0.000000	0.000000	
4.798391	2340.107265	2340.107265	-159.892735	-159.892735	25565.686855	25565.686855	226.122475	0.000000	0.000000	0.000000	
4.901875	2336.735846	2336.735846	-163.264154	-163.264154	26655.183960	26655.183960	230.890381	0.000000	0.000000	0.000000	
4.998509	2333.439704	2333.439704	-166.560296	-166.560296	27742.332217	27742.332217	235.551830	0.000000	0.000000	0.000000	
5.098955	2330.099294	2330.099294	-169.900706	-169.900706	28866.249825	28866.249825	240.275882	0.000000	0.000000	0.000000	
5.198422	2326.773491	2326.773491	-173.226509	-173.226509	30007.423538	30007.423538	244.979279	0.000000	0.000000	0.000000	
5.298830	2323.434728	2323.434728	-176.565272	-176.565272	31175.295420	31175.295420	249.701003	0.000000	0.000000	0.000000	
5.401813	2320.071179	2320.071179	-179.928821	-179.928821	32374.380652	32374.380652	254.457779	0.000000	0.000000	0.000000	
5.498602	2316.769391	2316.769391	-183.230609	-183.230609	33573.456040	33573.456040	259.127212	0.000000	0.000000	0.000000	
5.618967	2313.458087	2313.458087	-186.541913	-186.541913	34797.885385	34797.885385	263.810104	0.000000	0.000000	0.000000	
5.698780	2310.095629	2310.095629	-189.904371	-189.904371	36063.670210	36063.670210	268.565337	0.000000	0.000000	0.000000	
5.801759	2306.738581	2306.738581	-193.261419	-193.261419	37349.975977	37349.975977	273.312919	0.000000	0.000000	0.000000	
5.898942	2303.431982	2303.431982	-196.568018	-196.568018	38638.985812	38638.985812	277.989157	0.000000	0.000000	0.000000	
5.998560	2300.102628	2300.102628	-199.897372	-199.897372	39958.959255	39958.959255	282.697574	0.000000	0.000000	0.000000	
6.102767	2296.808368	2296.808368	-203.191632	-203.191632	41286.839317	41286.839317	287.356362	0.000000	0.000000	0.000000	
6.197396	2293.474032	2293.474032	-206.525968	-206.525968	42652.975587	42652.975587	292.071825	0.000000	0.000000	0.000000	
6.301809	2290.062901	2290.062901	-209.937099	-209.937099	44073.585676	44073.585676	296.895893	0.000000	0.000000	0.000000	
6.397470	2286.800505	2286.800505	-213.199495	-213.199495	45454.024835	45454.024835	301.509618	0.000000	0.000000	0.000000	
6.508535	2283.394891	2283.394891	-216.605109	-216.605109	46917.773244	46917.773244	306.325883	0.000000	0.000000	0.000000	
6.597272	2280.141840	2280.141840	-219.858160	-219.858160	48337.610373	48337.610373	310.926391	0.000000	0.000000	0.000000	
6.700786	2276.768690	2276.768690	-223.231310	-223.231310	49832.217919	49832.217919	315.696747	0.000000	0.000000	0.000000	
6.797342	2273.475242	2273.475242	-226.524758	-226.524758	51313.465943	51313.465943	320.354385	0.000000	0.000000	0.000000	
6.897587	2270.137099	2270.137099	-229.862901	-229.862901	52836.953162	52836.953162	325.075232	0.000000	0.000000	0.000000	
6.997429	2266.805735	2266.805735	-233.194265	-233.194265	54379.565015	54379.565015	329.786492	0.000000	0.000000	0.000000	
7.097709	2263.470522	2263.470522	-236.529478	-236.529478	55946.193795	55946.193795	334.503195	0.000000	0.000000	0.000000	
7.197354	2260.141019	2260.141019	-239.858981	-239.858981	57532.330702	57532.330702	339.211824	0.000000	0.000000	0.000000	
7.300737	2256.773814	2256.773814	-243.226186	-243.226186	59158.977761	59158.977761	343.973772	0.000000	0.000000	0.000000	
7.397413	2253.472069	2253.472069	-246.527931	-246.527931	60776.021002	60776.021002	348.643144	0.000000	0.000000	0.000000	
7.500918	2250.100821	2250.100821	-249.899179	-249.899179	62449.599599	62449.599599	353.410808	0.000000	0.000000	0.000000	
7.600791	2246.768089	2246.768089	-253.231911	-253.231911	64126.400887	64126.400887	358.124003	0.000000	0.000000	0.000000	
7.700675	2243.439248	2243.439248	-256.560752	-256.560752	65823.419235	65823.419235	362.831694	0.000000	0.000000	0.000000	
7.797415	2240.141203	2240.141203	-259.858797	-259.858797	67526.594353	67526.594353	367.495835	0.000000	0.000000	0.000000	
7.900880	2236.767539	2236.767539	-263.232461	-263.232461	69291.328459	69291.328459	372.266916	0.000000	0.000000	0.000000	
7.997646	2233.469258	2233.469258	-266.530742	-266.530742	71038.636174	71038.636174	376.931389	0.000000	0.000000	0.000000	
8.103203	2230.103336	2230.103336	-269.896664	-269.896664	72844.209213	72844.209213	381.691523	0.000000	0.000000	0.000000	
8.197392	2226.808114	2226.808114	-273.191886	-273.191886	74633.806845	74633.806845	386.351671	0.000000	0.000000	0.000000	
8.300872	2223.434557	2223.434557	-276.565443	-276.565443	76488.444533	76488.444533	391.122601	0.000000	0.000000	0.000000	
8.397875	2220.135442	2220.135442	-279.864558	-279.864558	78324.170913	78324.170913	395.788254	0.000000	0.000000	0.000000	
8.500706	2216.772962	2216.772962	-283.227038	-283.227038	80217.554803	80217.554803	400.543518	0.000000	0.000000	0.000000	
8.597376	2213.475366	2213.475366	-286.524634	-286.524634	82096.365813	82096.365813	405.207023	0.000000	0.000000	0.000000	
8.702138	2210.059316	2210.059316	-289.940684	-289.940684	84065.599956	84065.599956	410.038047	0.000000	0.000000	0.000000	
8.797309	2206.809409	2206.809409	-293.190591	-293.190591	85960.722382	85960.722382	414.634110	0.000000	0.000000	0.000000	
8.900846	2203.435275	2203.435275	-296.564725	-296.564725	87950.636080	87950.636080	419.405856	0.000000	0.000000	0.000000	
8.997383	2200.141614	2200.141614	-299.858386	-299.858386	89915.051866	89915.051866	424.063797	0.000000	0.000000	0.000000	
9.101506	2196.758754	2196.758754	-303.241246	-303.241246	91955.253257	91955.253257	428.847883	0.000000	0.000000	0.000000	
9.197318	2193.473839	2193.473839	-306.526161	-306.526161	93958.287242	93958.287242	433.493454	0.000000	0.000000	0.000000	
9.300664	2190.105842	2190.105842	-309.894158	-309.894158	96034.388910	96034.388910	438.256521	0.000000	0.000000	0.000000	
9.400795	2186.768020	2186.768020	-313.231980	-313.231980	98114.273111	98114.273111	442.976914	0.000000	0.000000	0.000000	
9.500585	2183.439843	2183.439843	-316.560157	-316.560157	100210.333023	100210.333023	447.683667	0.000000	0.000000	0.000000	
9.597676	2180.134334	2180.134334	-319.865666	-319.865666	102314.044234	102314.044234	452.358363	0.000000	0.000000	0.000000	
9.697583	2176.802329	2176.802329	-323.197671	-323.197671	104456.734684	104456.734684	457.070530	0.000000	0.000000	0.000000	
9.800215	2173.463031	2173.463031	-326.536969	-326.536969	106626.392075	106626.392075	461.793010	0.000000	0.000000	0.000000	
9.897536	2170.133442	2170.133442	-329.866558	-329.866558	108811.945880	108811.945880	466.501760	0.000000	0.000000	0.000000	
9.997456	2166.807960	2166.807960	-333.192040	-333.192040	111016.935830	111016.935830	471.204703	0.000000	0.000000	0.000000	
10.098341	2163.472126	2163.472126	-336.527874	-336.527874	113251.009807	113251.009807	475.922283	0.000000	0.000000	0.000000	
10.200761	2160.104472	2160.104472	-339.895528	-339.895528	115528.970221	115528.970221	480.684866	0.000000	0.000000	0.000000	
10.300920	2156.769472	2156.769472	-343.230528	-343.230528	117807.195106	117807.195106	485.401267	0.000000	0.000000	0.000000	
10.397405	2153.475426	2153.475426	-346.524574	-346.524574	120079.280378	120079.280378	490.059752	0.000000	0.000000	0.000000	
10.500847	2150.104072	2150.104072	-349.895928	-349.895928	122427.160639	122427.160639	494.827567	0.000000	0.000000	0.000000	
10.600787	2146.773777	2146.773777	-353.226223	-353.226223	124768.764456	124768.764456	499.537315	0.000000	0.000000	0.000000	
10.697432	2143.474727	2143.474727	-356.525273	-356.525273	127110.270493	127110.270493	504.202877	0.000000	0.000000	0.000000	
10.800796	2140.104121	2140.104121	-359.895879	-359.895879	129525.043801	129525.043801	508.969633	0.000000	0.000000	0.000000	
10.897384	2136.808770	2136.808770	-363.191230	-363.191230	131907.869521	131907.869521	513.629963	0.000000	0.000000	0.000000	
11.000786	2133.435234	2133.435234	-366.564766	-366.564766	134369.727361	134369.727361	518.400863	0.000000	0.000000	0.000000	
11.097423	2130.142300	2130.142300	-369.857700	-369.857700	136794.718163	136794.718163	523.057775	0.000000	0.000000	0.000000	
11.200852	2126.770967	2126.770967	-373.229033	-373.229033	139299.910931	139299.910931	527.825560	0.000000	0.000000	0.000000	
11.318322	2123.476044	2123.476044	-376.523956	-376.523956	141770.289406	141770.289406	532.485285	0.000000	0.000000	0.000000	
11.397338	2120.141323	2120.141323	-379.858677	-379.858677	144292.614639	144292.614639	537.201293	0.000000	0.000000	0.000000	
11.500714	2116.773796	2116.773796	-383.226204	-383.226204	146862.323071	146862.323071	541.963694	0.000000	0.000000	0.000000	
11.598051	2113.476414	2113.476414	-386.523586	-386.523586	149400.482523	149400.482523	546.626897	0.000000	0.000000	0.000000	
11.702354	2110.054227	2110.054227	-389.945773	-389.945773	152057.706054	152057.706054	551.466601	0.000000	0.000000	0.000000	
11.796370	2106.839178	2106.839178	-393.160822	-393.160822	154575.432084	154575.432084	556.013367	0.000000	0.000000	0.000000	
11.901471	2103.427127	2103.427127	-396.572873	-396.572873	157270.043404	157270.043404	560.838735	0.000000	0.000000	0.000000	
11.997284	2100.143089	2100.143089	-399.856911	-399.856911	159885.549087	159885.549087	565.483066	0.000000	0.000000	0.000000	
12.102612	2096.780182	2096.780182	-403.219818	-403.219818	162586.221523	162586.221523	570.238935	0.000000	0.000000	0.000000	
12.197328	2093.479506	2093.479506	-406.520494	-406.520494	165258.911772	165258.911772	574.906796	0.000000	0.000000	0.000000	
12.297203	2090.143908	2090.143908	-409.856092	-409.856092	167982.015909	167982.015909	579.624044	0.000000	0.000000	0.000000	
12.400446	2086.772426	2086.772426	-413.227574	-413.227574	170757.028185	170757.028185	584.392040	0.000000	0.000000	0.000000	
12.497534	2083.470852	2083.470852	-416.529148	-416.529148	173496.531392	173496.531392	589.061171	0.000000	0.000000	0.000000	
12.597660	2080.136515	2080.136515	-419.863485	-419.863485	176285.345713	176285.345713	593.776634	0.000000	0.000000	0.000000	
12.700870	2076.769738	2076.769738	-423.230262	-423.230262	179123.855066	179123.855066	598.537977	0.000000	0.000000	0.000000	
12.797270	2073.477210	2073.477210	-426.522790	-426.522790	181921.690775	181921.690775	603.194315	0.000000	0.000000	0.000000	
12.897384	2070.140756	2070.140756	-429.859244	-429.859244	184778.969570	184778.969570	607.912773	0.000000	0.000000	0.000000	
13.001270	2066.766258	2066.766258	-433.233742	-433.233742	187691.475084	187691.475084	612.685033	0.000000	0.000000	0.000000	
13.097643	2063.472340	2063.472340	-436.527660	-436.527660	190556.397850	190556.397850	617.343337	0.000000	0.000000	0.000000	
13.200647	2060.107551	2060.107551	-439.892449	-439.892449	193505.366603	193505.366603	622.101867	0.000000	0.000000	0.000000	
13.299747	2056.803946	2056.803946	-443.196054	-443.196054	196422.742718	196422.742718	626.773871	0.000000	0.000000	0.000000	
13.397645	2053.469075	2053.469075	-446.530925	-446.530925	199389.867366	199389.867366	631.490091	0.000000	0.000000	0.000000	
13.500773	2050.103174	2050.103174	-449.896826	-449.896826	202407.154478	202407.154478	636.250194	0.000000	0.000000	0.000000	
13.600689	2046.773093	2046.773093	-453.226907	-453.226907	205414.629325	205414.629325	640.959639	0.000000	0.000000	0.000000	
13.701356	2043.428727	2043.428727	-456.571273	-456.571273	208457.327448	208457.327448	645.689287	0.000000	0.000000	0.000000	
13.797307	2040.140455	2040.140455	-459.859545	-459.859545	211470.801530	211470.801530	650.339606	0.000000	0.000000	0.000000	
13.911105	2036.760803	2036.760803	-463.239197	-463.239197	214590.553873	214590.553873	655.119155	0.000000	0.000000	0.000000	
13.997432	2033.469921	2033.469921	-466.530079	-466.530079	217650.314212	217650.314212	659.773164	0.000000	0.000000	0.000000	
14.100210	2030.128485	2030.128485	-469.871515	-469.871515	220779.240426	220779.240426	664.498669	0.000000	0.000000	0.000000	
14.201309	2026.768572	2026.768572	-473.231428	-473.231428	223947.984414	223947.984414	669.250304	0.000000	0.000000	0.000000	
14.297441	2023.471275	2023.471275	-476.528725	-476.528725	227079.625636	227079.625636	673.913386	0.000000	0.000000	0.000000	
14.397377	2020.139056	2020.139056	-479.860944	-479.860944	230266.525613	230266.525613	678.625855	0.000000	0.000000	0.000000	
14.497599	2016.805703	2016.805703	-483.194297	-483.194297	233476.728285	233476.728285	683.339928	0.000000	0.000000	0.000000	
14.597480	2013.476500	2013.476500	-486.523500	-486.523500	236705.116485	236705.116485	688.048133	0.000000	0.000000	0.000000	
14.697374	2010.140966	2010.140966	-489.859034	-489.859034	239961.873513	239961.873513	692.765290	0.000000	0.000000	0.000000	
14.800567	2006.775920	2006.775920	-493.224080	-493.224080	243269.993058	243269.993058	697.524183	0.000000	0.000000	0.000000	
14.897837	2003.470240	2003.470240	-496.529760	-496.529760	246541.802497	246541.802497	702.199121	0.000000	0.000000	0.000000	
14.997918	2000.144094	2000.144094	-499.855906	-499.855906	249855.926418	249855.926418	706.903001	0.000000	0.000000	0.000000	
15.097465	1996.806144	1996.806144	-503.193856	-503.193856	253204.056797	253204.056797	711.623576	0.000000	0.000000	0.000000	
15.197328	1993.473647	1993.473647	-506.526353	-506.526353	256568.946534	256568.946534	716.336438	0.000000	0.000000	0.000000	
15.297477	1990.136830	1990.136830	-509.863170	-509.863170	259960.452378	259960.452378	721.055410	0.000000	0.000000	0.000000	
15.397446	1986.806108	1986.806108	-513.193892	-513.193892	263367.971233	263367.971233	725.765763	0.000000	0.000000	0.000000	
15.497273	1983.475150	1983.475150	-516.524850	-516.524850	266797.920522	266797.920522	730.476448	0.000000	0.000000	0.000000	
15.709494	1980.143380	1980.143380	-519.856620	-519.856620	270250.905280	270250.905280	735.188282	0.000000	0.000000	0.000000	
15.714575	1976.278709	1976.278709	-523.721291	-523.721291	274283.990645	274283.990645	740.653753	0.000000	0.000000	0.000000	
