AF-MATB V. 3.03
Programmed using MATLAB 7.5.0 and other Custom MATLAB Functions.

William Daniel Miller, Jr.
Air Force Research Laboratory
711th Human Performance Wing
Human Effectiveness Directorate
Applied Neuroscience Branch

RMS Center Coordinate (X,Y) is:	599.500000	565.500000	
Tracking Box X-Axis Lower Limit is:	449.500000	
Tracking Box X-Axis Upper Limit is:	749.500000	
Tracking Box Y-Axis Lower Limit is:	417.500000	
Tracking Box Y-Axis Upper Limit is:	717.500000	


Event Time	X Coordinates	Y Coordinates	X-Axis Difference	Y-Axis Difference	X-Axis Deviation	Y-Axis Deviation	Euclidian Distance From Target	X-Axis In Range?	y-Axis In Range?	Both In Range?
0.070259	602.229880	566.545117	2.729880	1.045117	7.452244	1.092270	2.923100	1.000000	1.000000	1.000000	
0.138057	606.446046	568.863326	6.946046	3.363326	48.247555	11.311959	7.717481	1.000000	1.000000	1.000000	
0.200413	610.632572	571.211174	11.132572	5.711174	123.934161	32.617508	12.512061	1.000000	1.000000	1.000000	
0.300333	614.848738	573.559022	15.348738	8.059022	235.583765	64.947841	17.335847	1.000000	1.000000	1.000000	
0.400456	619.064904	575.877231	19.564904	10.377231	382.785482	107.686916	22.146611	1.000000	1.000000	1.000000	
0.503584	623.281070	578.225079	23.781070	12.725079	565.539313	161.927636	26.971595	1.000000	1.000000	1.000000	
0.600259	627.497237	580.543287	27.997237	15.043287	783.845258	226.300494	31.782790	1.000000	1.000000	1.000000	
0.703452	631.713403	582.861496	32.213403	17.361496	1037.703317	301.421532	36.594055	1.000000	1.000000	1.000000	
0.803877	635.899929	585.179704	36.399929	19.679704	1324.954822	387.290751	41.379289	1.000000	1.000000	1.000000	
0.900251	640.116095	587.527552	40.616095	22.027552	1649.667174	485.213063	46.204764	1.000000	1.000000	1.000000	
1.000395	644.332261	589.875401	44.832261	24.375401	2009.931639	594.160160	51.030303	1.000000	1.000000	1.000000	
1.109637	648.518787	592.223249	49.018787	26.723249	2402.841505	714.132040	55.829862	1.000000	1.000000	1.000000	
1.200229	652.644473	593.929937	53.144473	28.429937	2824.335053	808.261340	60.271024	1.000000	1.000000	1.000000	
1.300328	655.795160	594.382386	56.295160	28.882386	3169.144987	834.192205	63.271931	1.000000	1.000000	1.000000	
1.403798	658.853806	594.773994	59.353806	29.273994	3522.874247	856.966729	66.180367	1.000000	1.000000	1.000000	
1.509629	661.912452	595.134402	62.412452	29.634402	3895.314139	878.197806	69.090607	1.000000	1.000000	1.000000	
1.600235	664.971098	595.494811	65.471098	29.994811	4286.464663	899.688672	72.014952	1.000000	1.000000	1.000000	
1.700189	668.182624	595.886419	68.682624	30.386419	4717.302847	923.334465	75.104176	1.000000	1.000000	1.000000	
1.800173	671.698350	597.348187	72.198350	31.848187	5212.601769	1014.307043	78.910765	1.000000	1.000000	1.000000	
1.900178	675.274916	598.962836	75.774916	33.462836	5741.837943	1119.761378	82.834771	1.000000	1.000000	1.000000	
2.000235	678.882682	600.577484	79.382682	35.077484	6301.610272	1230.429892	86.787327	1.000000	1.000000	1.000000	
2.116868	682.459249	602.252972	82.959249	36.752972	6882.236924	1350.780984	90.735979	1.000000	1.000000	1.000000	
2.200192	686.035815	603.836421	86.535815	38.336421	7488.447227	1469.681159	94.647390	1.000000	1.000000	1.000000	
2.303938	689.612381	605.451069	90.112381	39.951069	8120.241180	1596.087925	98.571442	1.000000	1.000000	1.000000	
2.400523	693.188947	607.126557	93.688947	41.626557	8777.618784	1732.770287	102.520189	1.000000	1.000000	1.000000	
2.515680	696.796713	608.833246	97.296713	43.333246	9466.650380	1877.770193	106.510190	1.000000	1.000000	1.000000	
2.600492	691.461717	609.249108	91.961717	43.749108	8456.957359	1913.984465	101.837821	1.000000	1.000000	1.000000	
2.703844	685.030041	607.126850	85.530041	41.626850	7315.387833	1732.794682	95.121935	1.000000	1.000000	1.000000	
2.800592	676.709204	604.606793	77.209204	39.106793	5961.261220	1529.341246	86.548267	1.000000	1.000000	1.000000	
2.903663	667.352528	602.116375	67.852528	36.616375	4603.965550	1340.758931	77.102039	1.000000	1.000000	1.000000	
3.023973	657.935012	599.994118	58.435012	34.494118	3414.650589	1189.844143	67.856427	1.000000	1.000000	1.000000	
3.100304	648.547135	597.871860	49.047135	32.371860	2405.621489	1047.937310	58.766987	1.000000	1.000000	1.000000	
3.204538	639.494659	595.749602	39.994659	30.249602	1599.572756	915.038433	50.145899	1.000000	1.000000	1.000000	
3.300211	630.473383	593.688185	30.973383	28.188185	959.350443	794.573747	41.879878	1.000000	1.000000	1.000000	
3.400371	622.366267	591.871687	22.866267	26.371687	522.866145	695.465869	34.904613	1.000000	1.000000	1.000000	
3.500199	615.416670	589.994349	15.916670	24.494349	253.340392	599.973143	29.211531	1.000000	1.000000	1.000000	
3.603902	608.557554	588.177852	9.057554	22.677852	82.039284	514.284951	24.419751	1.000000	1.000000	1.000000	
3.700171	601.880958	586.667114	2.380958	21.167114	5.668959	448.046711	21.300603	1.000000	1.000000	1.000000	
3.803901	596.057681	586.195336	-3.442319	20.695336	11.849557	428.296942	20.979669	1.000000	1.000000	1.000000	
3.921922	599.148172	581.641502	-0.351828	16.141502	0.123783	260.548085	16.145336	1.000000	1.000000	1.000000	
4.000486	602.238663	577.056468	2.738663	11.556468	7.500275	133.551945	11.876541	1.000000	1.000000	1.000000	
4.105947	606.243314	573.206193	6.743314	7.706193	45.472281	59.385416	10.240005	1.000000	1.000000	1.000000	
4.200128	610.340005	569.508799	10.840005	4.008799	117.505700	16.070470	11.557516	1.000000	1.000000	1.000000	
4.303759	614.954615	565.780205	15.454615	0.280205	238.845138	0.078515	15.457155	1.000000	1.000000	1.000000	
4.403852	619.934266	562.082811	20.434266	-3.417189	417.559236	11.677184	20.718022	1.000000	1.000000	1.000000	
4.503770	624.974757	557.742696	25.474757	-7.757304	648.963246	60.175762	26.629664	1.000000	1.000000	1.000000	
4.604008	630.138488	553.402582	30.638488	-12.097418	938.716937	146.347523	32.940317	1.000000	1.000000	1.000000	
4.703827	635.302219	549.001628	35.802219	-16.498372	1281.798860	272.196289	39.420745	1.000000	1.000000	1.000000	
4.800252	640.465949	544.600673	40.965949	-20.899327	1678.209015	436.781853	45.989030	1.000000	1.000000	1.000000	
4.902893	645.629680	540.199719	46.129680	-25.300281	2127.947401	640.104213	52.612276	1.000000	1.000000	1.000000	
4.999412	650.793411	535.798765	51.293411	-29.701235	2631.014019	882.163371	59.272062	1.000000	1.000000	1.000000	
5.103450	655.957142	531.397811	56.457142	-34.102189	3187.408869	1162.959326	65.957321	1.000000	1.000000	1.000000	
5.199418	661.120873	527.057696	61.620873	-38.442304	3797.131951	1477.810717	72.628801	1.000000	1.000000	1.000000	
5.303044	666.284603	522.656742	66.784603	-42.843258	4460.183264	1835.544758	79.345624	1.000000	1.000000	1.000000	
5.399809	671.448334	518.255788	71.948334	-47.244212	5176.562809	2232.015597	86.073099	1.000000	1.000000	1.000000	
5.502903	676.612065	513.854833	77.112065	-51.645167	5946.270585	2667.223233	92.808910	1.000000	1.000000	1.000000	
5.619980	681.775796	509.790839	82.275796	-55.709161	6769.306594	3103.510606	99.362051	1.000000	1.000000	1.000000	
5.699373	686.939527	506.368005	87.439527	-59.131995	7645.670834	3496.592852	105.556922	1.000000	1.000000	1.000000	
5.802788	692.103258	502.915531	92.603258	-62.584469	8575.363305	3916.815816	111.768417	1.000000	1.000000	1.000000	
5.902713	697.266988	499.492696	97.766988	-66.007304	9558.384009	4356.964146	117.963334	1.000000	1.000000	1.000000	
5.999246	702.430719	496.040222	102.930719	-69.459778	10594.732944	4824.660762	124.174851	1.000000	1.000000	1.000000	
6.116469	707.594450	492.587748	108.094450	-72.912252	11684.410111	5316.196536	130.386374	1.000000	1.000000	1.000000	
6.199373	712.758181	489.135273	113.258181	-76.364727	12827.415509	5831.571466	136.597903	1.000000	1.000000	1.000000	
6.302880	717.921912	485.682799	118.421912	-79.817201	14023.749139	6370.785555	142.809435	1.000000	1.000000	1.000000	
6.399214	723.085642	482.230325	123.585642	-83.269675	15273.411001	6933.838800	149.020971	1.000000	1.000000	1.000000	
6.509332	728.249373	478.746651	128.749373	-86.753349	16576.401095	7526.143639	155.249943	1.000000	1.000000	1.000000	
6.599536	733.413104	475.294176	133.913104	-90.205824	17932.719420	8137.090633	161.461482	1.000000	1.000000	1.000000	
6.699269	733.461374	468.991111	133.961374	-96.508889	17945.649653	9313.965666	165.104862	1.000000	1.000000	1.000000	
6.802600	733.509643	462.717686	134.009643	-102.782314	17958.584546	10564.204149	168.886911	1.000000	1.000000	1.000000	
6.899209	733.557913	456.383420	134.057913	-109.116580	17971.524099	11906.427967	172.852400	1.000000	1.000000	1.000000	
7.002886	733.606183	450.049155	134.106183	-115.450845	17984.468312	13328.897619	176.955830	1.000000	1.000000	1.000000	
7.102807	733.654453	443.746090	134.154453	-121.753910	17997.417185	14824.014688	181.166862	1.000000	1.000000	1.000000	
7.199304	733.702722	437.443024	134.202722	-128.056976	18010.370718	16398.589023	185.496522	1.000000	1.000000	1.000000	
7.299084	733.750992	431.169599	134.250992	-134.330401	18023.328910	18044.656637	189.915733	1.000000	1.000000	1.000000	
7.402714	733.799262	424.866534	134.299262	-140.633466	18036.291763	19777.771856	194.458385	1.000000	1.000000	1.000000	
7.515273	733.847532	418.563468	134.347532	-146.936532	18049.259275	21590.344340	199.096970	1.000000	1.000000	1.000000	
7.599207	733.895801	412.290043	134.395801	-153.209957	18062.231448	23473.290924	203.802655	1.000000	0.000000	0.000000	
7.702705	733.944071	408.000000	134.444071	-157.500000	18075.208280	24806.250000	207.078387	1.000000	0.000000	0.000000	
7.799261	733.992341	409.897625	134.492341	-155.602375	18088.189773	24212.099004	205.670340	1.000000	0.000000	0.000000	
7.899055	734.040611	411.795251	134.540611	-153.704749	18101.175925	23625.149971	204.270228	1.000000	0.000000	0.000000	
7.999254	734.088880	413.692876	134.588880	-151.807124	18114.166737	23045.402902	202.878214	1.000000	0.000000	0.000000	
8.105395	734.137150	415.620141	134.637150	-149.879859	18127.162209	22463.972040	201.472416	1.000000	0.000000	0.000000	
8.199514	734.185420	417.517767	134.685420	-147.982233	18140.162341	21898.741390	200.097236	1.000000	1.000000	1.000000	
8.303004	734.233690	419.445032	134.733690	-146.054968	18153.167133	21332.053687	198.708885	1.000000	1.000000	1.000000	
8.399187	734.281959	421.342657	134.781959	-144.157343	18166.176585	20781.339456	197.351250	1.000000	1.000000	1.000000	
8.499109	728.364216	419.741825	128.864216	-145.758175	16605.986212	21245.445580	194.554444	1.000000	1.000000	1.000000	
8.599157	722.446473	418.140993	122.946473	-147.359007	15115.835208	21714.677032	191.912772	1.000000	1.000000	1.000000	
8.705033	716.528730	416.510520	117.028730	-148.989480	13695.723575	22197.865029	189.456033	1.000000	0.000000	0.000000	
8.799154	710.610986	414.880048	111.110986	-150.619952	12345.651311	22686.369907	187.168430	1.000000	0.000000	0.000000	
8.899435	704.693243	413.279216	105.193243	-152.220784	11065.618418	23171.167138	185.031850	1.000000	0.000000	0.000000	
8.999197	698.775500	411.678384	99.275500	-153.821616	9855.624895	23661.089697	183.075707	1.000000	0.000000	0.000000	
9.099174	692.857757	410.016711	93.357757	-155.483289	8715.670742	24175.053089	181.357999	1.000000	0.000000	0.000000	
9.199161	686.940013	408.049279	87.440013	-157.450721	7645.755960	24790.729567	180.101320	1.000000	0.000000	0.000000	
9.302647	681.022270	408.000000	81.522270	-157.500000	6645.880547	24806.250000	177.347485	1.000000	0.000000	0.000000	
9.399204	675.104527	408.000000	75.604527	-157.500000	5716.044505	24806.250000	174.706309	1.000000	0.000000	0.000000	
9.502888	669.186784	408.000000	69.686784	-157.500000	4856.247832	24806.250000	172.228040	1.000000	0.000000	0.000000	
9.610805	663.269041	408.000000	63.769041	-157.500000	4066.490530	24806.250000	169.919806	1.000000	0.000000	0.000000	
9.699773	663.269041	408.000000	63.769041	-157.500000	4066.490530	24806.250000	169.919806	1.000000	0.000000	0.000000	
9.802479	657.351297	408.000000	57.851297	-157.500000	3346.772598	24806.250000	167.788625	1.000000	0.000000	0.000000	
9.899092	651.433554	408.000000	51.933554	-157.500000	2697.094036	24806.250000	165.841322	1.000000	0.000000	0.000000	
9.999034	645.515811	408.000000	46.015811	-157.500000	2117.454844	24806.250000	164.084444	1.000000	0.000000	0.000000	
10.100132	639.598068	408.000000	40.098068	-157.500000	1607.855022	24806.250000	162.524168	1.000000	0.000000	0.000000	
10.199324	633.680324	408.000000	34.180324	-157.500000	1168.294571	24806.250000	161.166202	1.000000	0.000000	0.000000	
10.300097	627.762581	408.000000	28.262581	-157.500000	798.773489	24806.250000	160.015698	1.000000	0.000000	0.000000	
10.402424	631.791522	409.640749	32.291522	-155.859251	1042.742400	24292.106074	159.169245	1.000000	0.000000	0.000000	
10.502504	635.820463	411.342338	36.320463	-154.157662	1319.176043	23764.584659	158.378536	1.000000	0.000000	0.000000	
10.599082	639.849404	412.951887	40.349404	-152.548113	1628.074417	23270.926639	157.794173	1.000000	0.000000	0.000000	
10.700884	639.849404	413.043927	40.349404	-152.456073	1628.074417	23242.854054	157.705195	1.000000	0.000000	0.000000	
10.799747	643.878345	414.684677	44.378345	-150.815323	1969.437522	22745.261768	157.209094	1.000000	0.000000	0.000000	
10.902871	647.907286	416.417466	48.407286	-149.082534	2343.265359	22225.602013	156.744593	1.000000	0.000000	0.000000	
10.999018	651.936227	419.220415	52.436227	-146.279585	2749.557928	21397.717011	155.393935	1.000000	1.000000	1.000000	
11.099166	655.965168	423.457004	56.465168	-142.042996	3188.315228	20176.212691	152.854597	1.000000	1.000000	1.000000	
11.202616	659.994109	428.943153	60.494109	-136.556847	3659.537260	18647.772400	149.356318	1.000000	1.000000	1.000000	
11.322878	664.023050	435.129742	64.523050	-130.370258	4163.224024	16996.404071	145.463494	1.000000	1.000000	1.000000	
11.399498	668.051991	441.316332	68.551991	-124.183668	4699.375519	15421.583513	141.848366	1.000000	1.000000	1.000000	
11.509943	672.080932	447.502921	72.580932	-117.997079	5267.991746	13923.310726	138.532677	1.000000	1.000000	1.000000	
11.604585	676.109873	453.567830	76.609873	-111.932170	5869.072704	12528.810716	135.638798	1.000000	1.000000	1.000000	
11.699923	680.138814	457.986939	80.638814	-107.513061	6502.618394	11559.058286	134.393738	1.000000	1.000000	1.000000	
11.802781	684.167755	462.223528	84.667755	-103.276472	7168.628816	10666.029638	133.546466	1.000000	1.000000	1.000000	
11.899009	688.196696	466.460117	88.696696	-99.039883	7867.103969	9808.898364	132.951128	1.000000	1.000000	1.000000	
12.002968	692.225638	470.726346	92.725638	-94.773654	8598.043854	8982.045406	132.589929	1.000000	1.000000	1.000000	
12.100436	692.597939	474.962936	93.097939	-90.537064	8667.226162	8196.960028	129.862182	1.000000	1.000000	1.000000	
12.198912	691.506960	479.199525	92.006960	-86.300475	8465.280611	7447.772026	126.146949	1.000000	1.000000	1.000000	
12.298231	690.355141	483.557794	90.855141	-81.942206	8254.656574	6714.525137	122.348607	1.000000	1.000000	1.000000	
12.402614	689.264162	487.947263	89.764162	-77.552737	8057.604714	6014.427005	118.625595	1.000000	1.000000	1.000000	
12.502508	688.204383	492.213492	88.704383	-73.286508	7868.467503	5370.912222	115.062504	1.000000	1.000000	1.000000	
12.599074	687.144604	496.602961	87.644604	-68.897039	7681.576556	4746.801931	111.482638	1.000000	1.000000	1.000000	
12.704238	686.084825	500.992431	86.584825	-64.507569	7496.931871	4161.226519	107.972952	1.000000	1.000000	1.000000	
12.799363	685.025046	505.289860	85.525046	-60.210140	7314.533449	3625.260997	104.593472	1.000000	1.000000	1.000000	
12.903117	683.965267	509.679329	84.465267	-55.820671	7134.381291	3115.947329	101.243907	1.000000	1.000000	1.000000	
12.999188	680.337054	515.396137	80.837054	-50.103863	6534.629371	2510.397124	95.105344	1.000000	1.000000	1.000000	
13.101805	676.679202	521.112944	77.179202	-44.387056	5956.629240	1970.210702	89.032803	1.000000	1.000000	1.000000	
13.199398	673.050990	526.829752	73.550990	-38.670248	5409.748099	1495.388062	83.097149	1.000000	1.000000	1.000000	
13.324649	669.422777	532.546560	69.922777	-32.953440	4889.194808	1085.929206	77.298926	1.000000	1.000000	1.000000	
13.399297	669.422777	532.546560	69.922777	-32.953440	4889.194808	1085.929206	77.298926	1.000000	1.000000	1.000000	
13.515203	666.769565	538.110488	67.269565	-27.389512	4525.194394	750.185377	72.631810	1.000000	1.000000	1.000000	
13.599021	664.361273	543.552736	64.861273	-21.947264	4206.984711	481.682414	68.473843	1.000000	1.000000	1.000000	
13.703084	662.500540	548.445863	63.000540	-17.054137	3969.068101	290.843574	65.267999	1.000000	1.000000	1.000000	
13.799137	662.224768	552.607351	62.724768	-12.892649	3934.396541	166.220393	64.036060	1.000000	1.000000	1.000000	
13.905732	662.131516	556.768839	62.631516	-8.731161	3922.706776	76.233172	63.237172	1.000000	1.000000	1.000000	
14.002523	662.067904	560.930327	62.567904	-4.569673	3914.742549	20.881913	62.734556	1.000000	1.000000	1.000000	
14.100650	661.943451	565.091815	62.443451	-0.408185	3899.184595	0.166615	62.444785	1.000000	1.000000	1.000000	
14.199345	661.879839	569.253302	62.379839	3.753302	3891.244295	14.087279	62.492652	1.000000	1.000000	1.000000	
14.302483	661.786587	573.414790	62.286587	7.914790	3879.618861	62.643904	62.787441	1.000000	1.000000	1.000000	
14.399893	661.693334	577.576278	62.193334	12.076278	3868.010819	145.836490	63.354931	1.000000	1.000000	1.000000	
14.502770	661.629722	581.737766	62.129722	16.237766	3860.102340	263.665038	64.216566	1.000000	1.000000	1.000000	
14.602630	661.536470	585.899254	62.036470	20.399254	3848.523554	416.129547	65.304312	1.000000	1.000000	1.000000	
14.699157	661.443217	590.060741	61.943217	24.560741	3836.962160	603.230018	66.634767	1.000000	1.000000	1.000000	
14.802785	661.318765	594.130189	61.818765	28.630189	3821.559693	819.687733	68.126701	1.000000	1.000000	1.000000	
14.902700	661.194313	598.137237	61.694313	32.637237	3806.188203	1065.189238	69.795254	1.000000	1.000000	1.000000	
15.000085	661.101060	602.083445	61.601060	36.583445	3794.690623	1338.348433	71.645231	1.000000	1.000000	1.000000	
15.099243	661.099848	606.090493	61.599848	40.590493	3794.541263	1647.588088	73.770789	1.000000	1.000000	1.000000	
15.202716	661.098636	610.097540	61.598636	44.597540	3794.391906	1988.940608	76.048225	1.000000	1.000000	1.000000	
15.299459	661.005383	614.104588	61.505383	48.604588	3782.912170	2362.405992	78.392080	1.000000	1.000000	1.000000	
15.402517	660.941771	618.111636	61.441771	52.611636	3775.091216	2767.984240	80.889279	1.000000	1.000000	1.000000	
15.515291	660.878159	622.118684	61.378159	56.618684	3767.278354	3205.675353	83.504214	1.000000	1.000000	1.000000	
15.704138	660.814546	626.125732	61.314546	60.625732	3759.473586	3675.479329	86.226173	1.000000	1.000000	1.000000	
15.709568	660.750934	630.132779	61.250934	64.632779	3751.676911	4177.396169	89.045343	1.000000	1.000000	1.000000	
15.804581	660.687322	634.139827	61.187322	68.639827	3743.888328	4711.425874	91.952782	1.000000	1.000000	1.000000	
15.901262	660.594069	638.146875	61.094069	72.646875	3732.485304	5277.568442	94.921303	1.000000	1.000000	1.000000	
16.002226	660.530457	642.185123	61.030457	76.685123	3724.716679	5880.608053	98.006759	1.000000	1.000000	1.000000	
16.107989	657.670498	647.450042	58.170498	81.950042	3383.806792	6715.809332	100.496846	1.000000	1.000000	1.000000	
16.200922	654.810538	652.654121	55.310538	87.154121	3059.255641	7595.840737	103.223526	1.000000	1.000000	1.000000	
16.301536	651.980219	657.919040	52.480219	92.419040	2754.173373	8541.278865	106.280065	1.000000	1.000000	1.000000	
16.404799	649.212300	663.183958	49.712300	97.683958	2471.312722	9542.155735	109.605969	1.000000	1.000000	1.000000	
16.501898	646.381980	668.448877	46.881980	102.948877	2197.920062	10598.471348	113.121136	1.000000	1.000000	1.000000	
