AF-MATB V. 3.03
Programmed using MATLAB 7.5.0 and other Custom MATLAB Functions.

William Daniel Miller, Jr.
Air Force Research Laboratory
711th Human Performance Wing
Human Effectiveness Directorate
Applied Neuroscience Branch

RMS Target Value is:	2500.000000	
Main Tank Automation Lower Limit is:	2350.000000	
Main Tank Automation Upper Limit is:	2650.000000	


Event Time	Tank A Value	Tank B Value	Tank A Difference	Tank B Difference	Tank A Deviation	Tank B Deviation	Euclidian Distance From Target	Tank A In Range?	Tank B In Range?	Both In Range?
0.066181	2499.761040	2499.761040	-0.238960	-0.238960	0.057102	0.057102	0.337940	1.000000	1.000000	1.000000	
0.138005	2495.915424	2495.915424	-4.084576	-4.084576	16.683764	16.683764	5.776463	1.000000	1.000000	1.000000	
0.200375	2493.375338	2493.375338	-6.624662	-6.624662	43.886141	43.886141	9.368686	1.000000	1.000000	1.000000	
0.300296	2490.045728	2490.045728	-9.954272	-9.954272	99.087526	99.087526	14.077466	1.000000	1.000000	1.000000	
0.400419	2486.704677	2486.704677	-13.295323	-13.295323	176.765615	176.765615	18.802426	1.000000	1.000000	1.000000	
0.503490	2483.345363	2483.345363	-16.654637	-16.654637	277.376948	277.376948	23.553214	1.000000	1.000000	1.000000	
0.600217	2480.046419	2480.046419	-19.953581	-19.953581	398.145395	398.145395	28.218625	1.000000	1.000000	1.000000	
0.703355	2476.703122	2476.703122	-23.296878	-23.296878	542.744514	542.744514	32.946760	1.000000	1.000000	1.000000	
0.803783	2473.341049	2473.341049	-26.658951	-26.658951	710.699660	710.699660	37.701450	1.000000	1.000000	1.000000	
0.900214	2470.047302	2470.047302	-29.952698	-29.952698	897.164105	897.164105	42.359511	1.000000	1.000000	1.000000	
1.000357	2466.708197	2466.708197	-33.291803	-33.291803	1108.344149	1108.344149	47.081719	1.000000	1.000000	1.000000	
1.109541	2463.344178	2463.344178	-36.655822	-36.655822	1343.649299	1343.649299	51.839161	1.000000	1.000000	1.000000	
1.200191	2460.046539	2460.046539	-39.953461	-39.953461	1596.279066	1596.279066	56.502727	1.000000	1.000000	1.000000	
1.300288	2456.711711	2456.711711	-43.288289	-43.288289	1873.876001	1873.876001	61.218886	1.000000	1.000000	1.000000	
1.403702	2453.344976	2453.344976	-46.655024	-46.655024	2176.691311	2176.691311	65.980168	1.000000	1.000000	1.000000	
1.509538	2450.007367	2450.007367	-49.992633	-49.992633	2499.263330	2499.263330	70.700259	1.000000	1.000000	1.000000	
1.600197	2446.714369	2446.714369	-53.285631	-53.285631	2839.358494	2839.358494	75.357262	1.000000	1.000000	1.000000	
1.700151	2443.380246	2443.380246	-56.619754	-56.619754	3205.796506	3205.796506	80.072424	1.000000	1.000000	1.000000	
1.800134	2440.047899	2440.047899	-59.952101	-59.952101	3594.254431	3594.254431	84.785075	1.000000	1.000000	1.000000	
1.900139	2436.716343	2436.716343	-63.283657	-63.283657	4004.821288	4004.821288	89.496607	1.000000	1.000000	1.000000	
2.000197	2433.378799	2433.378799	-66.621201	-66.621201	4438.384484	4438.384484	94.216607	1.000000	1.000000	1.000000	
2.116811	2430.007123	2430.007123	-69.992877	-69.992877	4899.002767	4899.002767	98.984875	1.000000	1.000000	1.000000	
2.200153	2426.714980	2426.714980	-73.285020	-73.285020	5370.694098	5370.694098	103.640669	1.000000	1.000000	1.000000	
2.303842	2423.340846	2423.340846	-76.659154	-76.659154	5876.625892	5876.625892	108.412415	1.000000	1.000000	1.000000	
2.400479	2420.043186	2420.043186	-79.956814	-79.956814	6393.092180	6393.092180	113.076011	1.000000	1.000000	1.000000	
2.515532	2416.209245	2416.209245	-83.790755	-83.790755	7020.890594	7020.890594	118.498022	1.000000	1.000000	1.000000	
2.600452	2413.376865	2413.376865	-86.623135	-86.623135	7503.567464	7503.567464	122.503612	1.000000	1.000000	1.000000	
2.703748	2410.010152	2410.010152	-89.989848	-89.989848	8098.172812	8098.172812	127.264864	1.000000	1.000000	1.000000	
2.800537	2406.708022	2406.708022	-93.291978	-93.291978	8703.393231	8703.393231	131.934781	1.000000	1.000000	1.000000	
2.903560	2403.345692	2403.345692	-96.654308	-96.654308	9342.055271	9342.055271	136.689833	1.000000	1.000000	1.000000	
3.023928	2399.270760	2399.270760	-100.729240	-100.729240	10146.379733	10146.379733	142.452657	1.000000	1.000000	1.000000	
3.100264	2396.713802	2396.713802	-103.286198	-103.286198	10668.038683	10668.038683	146.068742	1.000000	1.000000	1.000000	
3.204440	2393.333894	2393.333894	-106.666106	-106.666106	11377.658248	11377.658248	150.848654	1.000000	1.000000	1.000000	
3.300165	2390.049321	2390.049321	-109.950679	-109.950679	12089.151816	12089.151816	155.493741	1.000000	1.000000	1.000000	
3.400331	2386.712247	2386.712247	-113.287753	-113.287753	12834.114899	12834.114899	160.213076	1.000000	1.000000	1.000000	
3.500158	2383.382145	2383.382145	-116.617855	-116.617855	13599.724024	13599.724024	164.922552	1.000000	1.000000	1.000000	
3.603799	2380.007776	2380.007776	-119.992224	-119.992224	14398.133891	14398.133891	169.694631	1.000000	1.000000	1.000000	
3.700130	2376.716018	2376.716018	-123.283982	-123.283982	15198.940319	15198.940319	174.349880	1.000000	1.000000	1.000000	
3.803800	2373.341605	2373.341605	-126.658395	-126.658395	16042.348979	16042.348979	179.122020	1.000000	1.000000	1.000000	
3.921884	2370.045869	2370.045869	-129.954131	-129.954131	16888.076062	16888.076062	183.782894	1.000000	1.000000	1.000000	
4.000441	2366.709437	2366.709437	-133.290563	-133.290563	17766.374098	17766.374098	188.501321	1.000000	1.000000	1.000000	
4.105848	2363.346188	2363.346188	-136.653812	-136.653812	18674.264319	18674.264319	193.257674	1.000000	1.000000	1.000000	
4.200089	2360.048784	2360.048784	-139.951216	-139.951216	19586.342801	19586.342801	197.920907	1.000000	1.000000	1.000000	
4.303660	2356.673516	2356.673516	-143.326484	-143.326484	20542.480905	20542.480905	202.694257	1.000000	1.000000	1.000000	
4.403749	2353.342431	2353.342431	-146.657569	-146.657569	21508.442647	21508.442647	207.405124	1.000000	1.000000	1.000000	
4.503669	2350.011922	2350.011922	-149.988078	-149.988078	22496.423446	22496.423446	212.115174	1.000000	1.000000	1.000000	
4.600154	2346.715673	2346.715673	-153.284327	-153.284327	23496.084816	23496.084816	216.776774	0.000000	0.000000	0.000000	
4.703690	2343.342009	2343.342009	-156.657991	-156.657991	24541.726031	24541.726031	221.547855	0.000000	0.000000	0.000000	
4.800196	2340.049011	2340.049011	-159.950989	-159.950989	25584.318915	25584.318915	226.204858	0.000000	0.000000	0.000000	
4.902757	2336.709649	2336.709649	-163.290351	-163.290351	26663.738717	26663.738717	230.927429	0.000000	0.000000	0.000000	
4.999355	2333.407818	2333.407818	-166.592182	-166.592182	27752.954959	27752.954959	235.596923	0.000000	0.000000	0.000000	
5.102891	2330.041896	2330.041896	-169.958104	-169.958104	28885.757116	28885.757116	240.357056	0.000000	0.000000	0.000000	
5.199362	2326.741562	2326.741562	-173.258438	-173.258438	30018.486212	30018.486212	245.024432	0.000000	0.000000	0.000000	
5.302906	2323.376346	2323.376346	-176.623654	-176.623654	31195.915278	31195.915278	249.783567	0.000000	0.000000	0.000000	
5.399753	2320.071008	2320.071008	-179.928992	-179.928992	32374.442218	32374.442218	254.458021	0.000000	0.000000	0.000000	
5.502764	2316.708700	2316.708700	-183.291300	-183.291300	33595.700828	33595.700828	259.213043	0.000000	0.000000	0.000000	
5.619927	2313.419914	2313.419914	-186.580086	-186.580086	34812.128501	34812.128501	263.864088	0.000000	0.000000	0.000000	
5.699318	2310.082605	2310.082605	-189.917395	-189.917395	36068.616882	36068.616882	268.583756	0.000000	0.000000	0.000000	
5.802648	2306.710139	2306.710139	-193.289861	-193.289861	37360.970457	37360.970457	273.353143	0.000000	0.000000	0.000000	
5.902570	2303.378048	2303.378048	-196.621952	-196.621952	38660.192041	38660.192041	278.065431	0.000000	0.000000	0.000000	
5.999190	2300.083018	2300.083018	-199.916982	-199.916982	39966.799753	39966.799753	282.725308	0.000000	0.000000	0.000000	
6.116336	2296.708648	2296.708648	-203.291352	-203.291352	41327.373714	41327.373714	287.497387	0.000000	0.000000	0.000000	
6.199292	2293.417489	2293.417489	-206.582511	-206.582511	42676.333901	42676.333901	292.151789	0.000000	0.000000	0.000000	
6.302738	2290.042820	2290.042820	-209.957180	-209.957180	44082.017499	44082.017499	296.924292	0.000000	0.000000	0.000000	
6.399148	2286.749693	2286.749693	-213.250307	-213.250307	45475.693407	45475.693407	301.581476	0.000000	0.000000	0.000000	
6.509195	2286.412558	2283.378339	-213.587442	-216.621661	45619.595536	46924.944119	304.211340	0.000000	0.000000	0.000000	
6.599454	2286.082413	2280.076893	-213.917587	-219.923107	45760.733998	48366.172954	306.801087	0.000000	0.000000	0.000000	
6.699212	2285.749739	2276.750149	-214.250261	-223.249851	45903.174502	49840.496161	309.424742	0.000000	0.000000	0.000000	
6.802454	2285.412717	2273.379928	-214.587283	-226.620072	46047.702227	51356.657175	312.096715	0.000000	0.000000	0.000000	
6.899151	2285.082957	2270.082331	-214.917043	-229.917669	46189.335416	52862.134345	314.724435	0.000000	0.000000	0.000000	
7.002746	2284.745479	2266.707555	-215.254521	-233.292445	46334.508681	54425.364700	317.426958	0.000000	0.000000	0.000000	
7.102662	2284.412794	2263.380704	-215.587206	-236.619296	46477.843323	55988.691251	320.103943	0.000000	0.000000	0.000000	
7.199246	2284.082936	2260.082124	-215.917064	-239.917876	46620.178460	57560.587253	322.770454	0.000000	0.000000	0.000000	
7.299027	2286.415325	2256.750140	-213.584675	-243.249860	45618.413439	59170.494380	323.711149	0.000000	0.000000	0.000000	
7.402572	2288.777174	2253.376070	-211.222826	-246.623930	44615.082194	60823.362960	324.712866	0.000000	0.000000	0.000000	
7.515216	2291.458238	2249.545979	-208.541762	-250.454021	43489.666595	62727.216746	325.909318	0.000000	0.000000	0.000000	
7.599148	2293.418329	2246.745848	-206.581671	-253.254152	42675.986660	64137.665513	326.823580	0.000000	0.000000	0.000000	
7.702559	2295.777050	2243.376247	-204.222950	-256.623753	41707.013380	65855.750464	327.967626	0.000000	0.000000	0.000000	
7.799190	2298.084215	2240.080298	-201.915785	-259.919702	40769.984406	67558.251679	329.132551	0.000000	0.000000	0.000000	
7.898997	2300.414343	2239.747422	-199.585657	-260.252578	39834.434527	67731.404273	327.972314	0.000000	0.000000	0.000000	
7.999194	2302.752465	2239.413405	-197.247535	-260.586595	38906.590050	67905.373645	326.820996	0.000000	0.000000	0.000000	
8.105250	2305.109299	2239.076714	-194.890701	-260.923286	37982.385201	68080.961129	325.673681	0.000000	0.000000	0.000000	
8.199435	2307.419892	2238.746629	-192.580108	-261.253371	37087.097935	68253.323647	324.561892	0.000000	0.000000	0.000000	
8.302855	2309.776083	2238.410031	-190.223917	-261.589969	36185.138684	68429.312014	323.441572	0.000000	0.000000	0.000000	
8.399126	2312.082754	2238.080506	-187.917246	-261.919494	35312.891523	68601.821152	322.358050	0.000000	0.000000	0.000000	
8.499051	2314.414319	2240.412072	-185.585681	-259.587928	34442.045018	67385.892487	319.104900	0.000000	0.000000	0.000000	
8.599098	2316.748190	2242.745943	-183.251810	-257.254057	33581.225986	66179.650096	315.849452	0.000000	0.000000	0.000000	
8.704890	2319.151251	2245.149003	-180.848749	-254.850997	32706.270189	64949.030495	312.498481	0.000000	0.000000	0.000000	
8.799093	2321.414225	2247.411977	-178.585775	-252.588023	31892.879167	63800.709135	309.343803	0.000000	0.000000	0.000000	
8.899369	2323.751044	2249.748797	-176.248956	-250.251203	31063.694348	62625.664485	306.087175	0.000000	0.000000	0.000000	
8.999136	2326.083313	2252.081066	-173.916687	-247.918934	30247.013881	61463.797726	302.837930	0.000000	0.000000	0.000000	
9.099114	2328.414909	2254.412662	-171.585091	-245.587338	29441.443543	60313.140798	299.590695	0.000000	0.000000	0.000000	
9.199102	2330.747672	2256.745425	-169.252328	-243.254575	28646.350626	59172.788475	296.342942	0.000000	0.000000	0.000000	
9.302484	2333.107111	2259.104864	-166.892889	-240.895136	27853.236475	58030.466741	293.059215	0.000000	0.000000	0.000000	
9.399144	2335.415398	2261.413151	-164.584602	-238.586849	27088.091133	56923.684478	289.847849	0.000000	0.000000	0.000000	
9.502826	2337.822860	2263.820613	-162.177140	-236.179387	26301.424677	55780.702835	286.499786	0.000000	0.000000	0.000000	
9.610747	2340.355245	2266.352997	-159.644755	-233.647003	25486.447950	54590.921844	282.979451	0.000000	0.000000	0.000000	
9.699707	2342.419406	2268.417158	-157.580594	-231.582842	24831.643717	53630.612488	280.111150	0.000000	0.000000	0.000000	
9.802331	2344.776015	2270.773768	-155.223985	-229.226232	24094.485391	52544.665326	276.837770	0.000000	0.000000	0.000000	
9.899031	2347.080680	2273.078433	-152.919320	-226.921567	23384.318363	51493.397549	273.637928	0.000000	0.000000	0.000000	
9.998974	2349.417515	2275.415268	-150.582485	-224.584732	22675.084798	50438.301938	270.394872	0.000000	0.000000	0.000000	
10.100051	2351.749589	2277.747342	-148.250411	-222.252658	21978.184258	49396.243909	267.159930	1.000000	0.000000	0.000000	
10.199251	2354.085047	2280.082800	-145.914953	-219.917200	21291.173542	48363.574981	263.921861	1.000000	0.000000	0.000000	
10.300000	2356.423723	2282.421476	-143.576277	-217.578524	20614.147341	47340.414217	260.680957	1.000000	0.000000	0.000000	
10.402265	2358.773866	2284.771619	-141.226134	-215.228381	19944.820992	46323.256165	257.425867	1.000000	0.000000	0.000000	
10.502344	2361.108680	2287.106432	-138.891320	-212.893568	19290.798883	45323.671113	254.193765	1.000000	0.000000	0.000000	
10.599006	2363.406982	2289.404735	-136.593018	-210.595265	18657.652493	44350.365600	251.013980	1.000000	0.000000	0.000000	
10.700776	2365.761496	2291.759249	-134.238504	-208.240751	18019.975883	43364.210335	247.758322	1.000000	0.000000	0.000000	
10.799666	2368.080727	2294.078479	-131.919273	-205.921521	17402.694689	42403.672625	244.553404	1.000000	0.000000	0.000000	
10.902714	2370.446857	2296.444610	-129.553143	-203.555390	16784.016826	41434.796812	241.285751	1.000000	0.000000	0.000000	
10.998954	2372.747136	2298.744889	-127.252864	-201.255111	16193.291445	40503.619849	238.111132	1.000000	0.000000	0.000000	
11.099101	2375.082294	2301.080047	-124.917706	-198.919953	15604.433284	39569.147788	234.890573	1.000000	0.000000	0.000000	
11.202441	2377.441224	2303.438977	-122.558776	-196.561023	15020.653568	38636.235819	231.639568	1.000000	0.000000	0.000000	
11.322818	2379.750395	2305.748148	-120.249605	-194.251852	14459.967570	37733.782181	228.459514	1.000000	0.000000	0.000000	
11.399414	2382.086945	2308.084698	-117.913055	-191.915302	13903.488528	36831.483189	225.244249	1.000000	0.000000	0.000000	
11.509870	2384.659074	2310.656827	-115.340926	-189.343173	13303.529206	35850.837219	221.707840	1.000000	0.000000	0.000000	
11.604425	2386.773144	2312.770897	-113.226856	-187.229103	12820.320870	35054.736992	218.803697	1.000000	0.000000	0.000000	
11.699853	2389.080399	2315.078152	-110.919601	-184.921848	12303.157934	34196.090010	215.636843	1.000000	0.000000	0.000000	
11.802618	2391.443101	2317.440854	-108.556899	-182.559146	11784.600270	33327.841766	212.396897	1.000000	0.000000	0.000000	
11.898944	2393.745775	2319.743528	-106.254225	-180.256472	11289.960317	32492.395737	209.242338	1.000000	0.000000	0.000000	
12.002806	2396.112295	2322.110048	-103.887705	-177.889952	10792.655294	31644.835158	206.003618	1.000000	0.000000	0.000000	
12.100372	2398.413876	2324.411629	-101.586124	-175.588371	10319.740624	30831.276151	202.857134	1.000000	0.000000	0.000000	
12.198845	2400.744498	2326.742251	-99.255502	-173.257749	9851.654649	30018.247598	199.674491	1.000000	0.000000	0.000000	
12.298165	2403.061079	2329.058832	-96.938921	-170.941168	9397.154433	29220.883026	196.514726	1.000000	0.000000	0.000000	
12.402432	2405.440158	2331.437911	-94.559842	-168.562089	8941.563684	28413.177844	193.273748	1.000000	0.000000	0.000000	
12.502338	2407.772203	2333.769955	-92.227797	-166.230045	8505.966609	27632.427710	190.101011	1.000000	0.000000	0.000000	
12.599009	2410.080775	2336.078527	-89.919225	-163.921473	8085.467110	26870.249194	186.964479	1.000000	0.000000	0.000000	
12.704073	2412.476695	2338.474448	-87.523305	-161.525552	7660.328953	26090.504067	183.713998	1.000000	0.000000	0.000000	
12.799291	2414.750238	2340.747990	-85.249762	-159.252010	7267.522000	25361.202572	180.634229	1.000000	0.000000	0.000000	
12.902955	2417.117655	2343.115408	-82.882345	-156.884592	6869.483038	24612.775119	177.432404	1.000000	0.000000	0.000000	
12.999122	2419.415165	2345.412918	-80.584835	-154.587082	6493.915677	23897.166060	174.330381	1.000000	0.000000	0.000000	
13.101644	2421.752553	2347.750306	-78.247447	-152.249694	6122.662906	23179.969267	171.180116	1.000000	0.000000	0.000000	
13.198975	2424.077996	2350.075749	-75.922004	-149.924251	5764.150670	22477.281046	168.051872	1.000000	1.000000	1.000000	
13.324607	2427.009773	2353.007526	-72.990227	-146.992474	5327.573255	21606.787498	164.116912	1.000000	1.000000	1.000000	
13.399254	2428.748477	2354.746230	-71.251523	-145.253770	5076.779516	21098.657720	161.788248	1.000000	1.000000	1.000000	
13.515154	2431.452534	2357.450287	-68.547466	-142.549713	4698.755054	20320.420639	158.174510	1.000000	1.000000	1.000000	
13.598978	2433.414093	2359.411846	-66.585907	-140.588154	4433.683026	19765.029124	155.559352	1.000000	1.000000	1.000000	
13.702974	2435.782005	2361.779758	-64.217995	-138.220242	4123.950907	19104.835400	152.409929	1.000000	1.000000	1.000000	
13.799092	2438.083930	2364.081683	-61.916070	-135.918317	3833.599706	18473.788903	149.356582	1.000000	1.000000	1.000000	
13.905658	2440.425750	2366.423503	-59.574250	-133.576497	3549.091285	17842.680645	146.259263	1.000000	1.000000	1.000000	
14.002410	2442.773483	2368.771235	-57.226517	-131.228765	3274.874301	17220.988668	143.163763	1.000000	1.000000	1.000000	
14.100585	2445.083971	2371.081723	-54.916029	-128.918277	3015.770289	16619.922043	140.127415	1.000000	1.000000	1.000000	
14.199301	2447.422198	2373.419950	-52.577802	-126.580050	2764.425316	16022.508974	137.065438	1.000000	1.000000	1.000000	
14.302370	2449.772909	2375.770662	-50.227091	-124.229338	2522.760651	15432.928414	133.998840	1.000000	1.000000	1.000000	
14.399850	2452.083203	2378.080955	-47.916797	-121.919045	2296.019472	14864.253425	130.997225	1.000000	1.000000	1.000000	
14.502660	2454.442522	2380.440275	-45.557478	-119.559725	2075.483811	14294.527906	127.945347	1.000000	1.000000	1.000000	
14.602520	2456.772680	2382.770433	-43.227320	-117.229567	1868.601181	13742.771382	124.945478	1.000000	1.000000	1.000000	
14.699112	2459.080010	2385.077762	-40.919990	-114.922238	1674.445617	13207.120695	121.990025	1.000000	1.000000	1.000000	
14.802677	2461.441784	2387.439537	-38.558216	-112.560463	1486.736029	12669.857893	118.981486	1.000000	1.000000	1.000000	
14.902590	2463.772825	2389.770578	-36.227175	-110.229422	1312.408182	12150.525432	116.029882	1.000000	1.000000	1.000000	
15.000042	2466.083283	2392.081036	-33.916717	-107.918964	1150.343661	11646.502730	113.123147	1.000000	1.000000	1.000000	
15.099195	2468.415567	2394.413320	-31.584433	-105.586680	997.576382	11148.546943	110.209452	1.000000	1.000000	1.000000	
15.202607	2470.776084	2396.773837	-29.223916	-103.226163	854.037250	10655.640706	107.283167	1.000000	1.000000	1.000000	
15.299393	2473.082935	2399.080687	-26.917065	-100.919313	724.528407	10184.707638	104.447288	1.000000	1.000000	1.000000	
15.402406	2475.438616	2401.436369	-24.561384	-98.563631	603.261569	9714.789330	101.577807	1.000000	1.000000	1.000000	
15.515243	2478.022796	2404.020549	-21.977204	-95.979451	482.997500	9212.055065	98.463458	1.000000	1.000000	1.000000	
15.704095	2480.079637	2406.077390	-19.920363	-93.922610	396.820869	8821.456734	96.011862	1.000000	1.000000	1.000000	
15.709523	2482.617904	2408.615657	-17.382096	-91.384343	302.137252	8351.098128	93.022768	1.000000	1.000000	1.000000	
15.804469	2484.817991	2410.815743	-15.182009	-89.184257	230.493411	7953.831631	90.467260	1.000000	1.000000	1.000000	
