AF-MATB V. 3.03
Programmed using MATLAB 7.5.0 and other Custom MATLAB Functions.

William Daniel Miller, Jr.
Air Force Research Laboratory
711th Human Performance Wing
Human Effectiveness Directorate
Applied Neuroscience Branch

RMS Center Coordinate (X,Y) is:	599.500000	565.500000	
Tracking Box X-Axis Lower Limit is:	449.500000	
Tracking Box X-Axis Upper Limit is:	749.500000	
Tracking Box Y-Axis Lower Limit is:	417.500000	
Tracking Box Y-Axis Upper Limit is:	717.500000	


Event Time	X Coordinates	Y Coordinates	X-Axis Difference	Y-Axis Difference	X-Axis Deviation	Y-Axis Deviation	Euclidian Distance From Target	X-Axis In Range?	y-Axis In Range?	Both In Range?
0.103520	599.993970	562.469841	0.493970	-3.030159	0.244006	9.181862	3.070158	1.000000	1.000000	1.000000	
0.111122	600.487940	559.439682	0.987940	-6.060318	0.976025	36.727449	6.140315	1.000000	1.000000	1.000000	
0.200411	600.981910	556.430324	1.481910	-9.069676	2.196057	82.259029	9.189945	1.000000	1.000000	1.000000	
0.304772	601.475880	553.278485	1.975880	-12.221515	3.904100	149.365432	12.380207	1.000000	1.000000	1.000000	
0.404092	601.969850	549.984166	2.469850	-15.515834	6.100157	240.741101	15.711183	1.000000	1.000000	1.000000	
0.500850	602.463819	546.689847	2.963819	-18.810153	8.784226	353.821843	19.042218	1.000000	1.000000	1.000000	
0.600599	602.977549	543.395529	3.477549	-22.104471	12.093350	488.607658	22.376349	1.000000	1.000000	1.000000	
0.700475	603.471519	540.672170	3.971519	-24.827830	15.772966	616.421154	25.143471	1.000000	1.000000	1.000000	
0.803869	603.965489	538.172411	4.465489	-27.327589	19.940594	746.797121	27.690029	1.000000	1.000000	1.000000	
0.900610	604.459459	536.160412	4.959459	-29.339588	24.596235	860.811411	29.755800	1.000000	1.000000	1.000000	
1.003932	604.973189	534.819213	5.473189	-30.680787	29.955799	941.310664	31.165148	1.000000	1.000000	1.000000	
1.100422	605.467159	533.761935	5.967159	-31.738065	35.606986	1007.304792	32.294145	1.000000	1.000000	1.000000	
1.200453	605.961129	532.684896	6.461129	-32.815104	41.746187	1076.831058	33.445138	1.000000	1.000000	1.000000	
1.301235	606.474859	531.688977	6.974859	-33.811023	48.648656	1143.185269	34.522948	1.000000	1.000000	1.000000	
1.400356	606.968829	530.753378	7.468829	-34.746622	55.783403	1207.327718	35.540275	1.000000	1.000000	1.000000	
1.503979	607.462799	529.817780	7.962799	-35.682220	63.406163	1273.220856	36.559910	1.000000	1.000000	1.000000	
1.603164	607.956769	529.024661	8.456769	-36.475339	71.516935	1330.450372	37.442854	1.000000	1.000000	1.000000	
1.703810	608.450738	528.617382	8.950738	-36.882618	80.115720	1360.327511	37.953172	1.000000	1.000000	1.000000	
1.800254	608.944708	528.840343	9.444708	-36.659657	89.202517	1343.930436	37.856743	1.000000	1.000000	1.000000	
1.904379	609.458438	529.590584	9.958438	-35.909416	99.170494	1289.486126	37.264683	1.000000	1.000000	1.000000	
2.000389	609.952408	530.483306	10.452408	-35.016694	109.252838	1226.168883	36.543422	1.000000	1.000000	1.000000	
2.105160	610.466138	531.376027	10.966138	-34.123973	120.256186	1164.445542	35.842736	1.000000	1.000000	1.000000	
2.201196	610.979868	532.289548	11.479868	-33.210452	131.787371	1102.934115	35.138604	1.000000	1.000000	1.000000	
2.303194	611.514398	533.263389	12.014398	-32.236611	144.345759	1039.199068	34.402686	1.000000	1.000000	1.000000	
2.400355	611.967808	534.562751	12.467808	-30.937249	155.446234	957.113404	33.355054	1.000000	1.000000	1.000000	
2.504018	612.421218	535.881872	12.921218	-29.618128	166.957870	877.233520	32.313950	1.000000	1.000000	1.000000	
2.600450	612.874628	537.384033	13.374628	-28.115967	178.880667	790.507601	31.135001	1.000000	1.000000	1.000000	
2.699972	613.368598	539.048434	13.868598	-26.451566	192.338001	699.685333	29.866760	1.000000	1.000000	1.000000	
2.803953	613.862568	540.712835	14.362568	-24.787165	206.283347	614.403527	28.647633	1.000000	1.000000	1.000000	
2.900794	614.315977	542.398037	14.815977	-23.101963	219.513189	533.700711	27.444743	1.000000	1.000000	1.000000	
3.003281	614.667467	544.062438	15.167467	-21.437562	230.052068	459.569070	26.260639	1.000000	1.000000	1.000000	
3.100470	614.490637	545.788199	14.990637	-19.711801	224.719207	388.555095	24.764376	1.000000	1.000000	1.000000	
3.203899	614.334607	547.452600	14.834607	-18.047400	220.065572	325.708635	23.361811	1.000000	1.000000	1.000000	
3.300306	614.178577	549.117002	14.678577	-16.382998	215.460627	268.402639	21.996892	1.000000	1.000000	1.000000	
3.403905	614.001747	550.802203	14.501747	-14.697797	210.300668	216.025244	20.647661	1.000000	1.000000	1.000000	
3.500313	613.845717	552.466604	14.345717	-13.033396	205.799596	169.869412	19.382183	1.000000	1.000000	1.000000	
3.604032	609.781276	555.145455	10.281276	-10.354545	105.704628	107.216597	14.591820	1.000000	1.000000	1.000000	
3.700241	605.655474	557.824307	6.155474	-7.675693	37.889863	58.916270	9.839011	1.000000	1.000000	1.000000	
3.803878	601.550473	560.523958	2.050473	-4.976042	4.204439	24.760996	5.381955	1.000000	1.000000	1.000000	
3.900298	597.445471	563.223609	-2.054529	-2.276391	4.221088	5.181956	3.066438	1.000000	1.000000	1.000000	
4.000378	593.360230	565.902460	-6.139770	0.402460	37.696775	0.161974	6.152946	1.000000	1.000000	1.000000	
4.100838	589.274989	568.642672	-10.225011	3.142672	104.550856	9.876385	10.697067	1.000000	1.000000	1.000000	
4.200833	585.169987	571.321523	-14.330013	5.821523	205.349263	33.890129	15.467365	1.000000	1.000000	1.000000	
4.303871	581.105546	574.000374	-18.394454	8.500374	338.355940	72.256361	20.263571	1.000000	1.000000	1.000000	
4.400736	577.041105	576.659465	-22.458895	11.159465	504.401985	124.533670	25.078590	1.000000	1.000000	1.000000	
4.503815	572.976663	578.790237	-26.523337	13.290237	703.487396	176.630393	29.666779	1.000000	1.000000	1.000000	
4.612837	570.314142	580.473808	-29.185858	14.973808	851.814319	224.214927	32.802885	1.000000	1.000000	1.000000	
4.700399	567.651620	582.157379	-31.848380	16.657379	1014.319283	277.468285	35.941446	1.000000	1.000000	1.000000	
4.800484	564.989099	583.840951	-34.510901	18.340951	1191.002286	336.390468	39.081872	1.000000	1.000000	1.000000	
4.903096	562.326578	585.341482	-37.173422	19.841482	1381.863330	393.684402	42.137249	1.000000	1.000000	1.000000	
5.000801	559.664056	586.578893	-39.835944	21.078893	1586.902413	444.319736	45.069082	1.000000	1.000000	1.000000	
5.103718	557.287535	587.592704	-42.212465	22.092704	1781.892211	488.087588	47.644305	1.000000	1.000000	1.000000	
5.200901	555.237574	588.342356	-44.262426	22.842356	1959.162400	521.773213	49.808991	1.000000	1.000000	1.000000	
5.300247	553.656652	588.949527	-45.843348	23.449527	2101.612545	549.880315	51.492649	1.000000	1.000000	1.000000	
5.400887	553.829171	589.556698	-45.670829	24.056698	2085.824646	578.724730	51.619273	1.000000	1.000000	1.000000	
5.499913	554.653769	590.144110	-44.846231	24.644110	2011.184403	607.332134	51.171443	1.000000	1.000000	1.000000	
5.603759	555.518928	590.751281	-43.981072	25.251281	1934.334697	637.627182	50.714513	1.000000	1.000000	1.000000	
5.699955	556.323767	591.338692	-43.176233	25.838692	1864.187131	667.638008	50.317245	1.000000	1.000000	1.000000	
5.804296	557.148365	591.926103	-42.351635	26.426103	1793.660969	698.338938	49.919935	1.000000	1.000000	1.000000	
5.900210	557.911604	592.513515	-41.588396	27.013515	1729.594696	729.729972	49.591579	1.000000	1.000000	1.000000	
6.000345	558.695642	593.100926	-40.804358	27.600926	1664.995595	761.811110	49.262630	1.000000	1.000000	1.000000	
6.105768	559.520241	593.708097	-39.979759	28.208097	1598.381125	795.696746	48.929315	1.000000	1.000000	1.000000	
6.200386	560.344840	594.295508	-39.155160	28.795508	1533.126580	829.181307	48.603579	1.000000	1.000000	1.000000	
6.301846	561.108078	594.902680	-38.391922	29.402680	1473.939652	864.517575	48.357597	1.000000	1.000000	1.000000	
6.403934	561.932677	595.490091	-37.567323	29.990091	1411.303764	899.405558	48.069838	1.000000	1.000000	1.000000	
6.500138	562.757276	596.077502	-36.742724	30.577502	1350.027801	934.983646	47.801793	1.000000	1.000000	1.000000	
6.600540	563.541314	596.664914	-35.958686	31.164914	1293.027088	971.251837	47.584440	1.000000	1.000000	1.000000	
6.704004	564.263993	597.312645	-35.236007	31.812645	1241.576205	1012.044371	47.472314	1.000000	1.000000	1.000000	
6.800410	564.925311	597.919816	-34.574689	32.419816	1195.409092	1051.044477	47.396767	1.000000	1.000000	1.000000	
6.903990	565.627190	598.507227	-33.872810	33.007227	1147.367257	1089.477060	47.295289	1.000000	1.000000	1.000000	
7.003788	566.329069	599.094639	-33.170931	33.594639	1100.310688	1128.599747	47.211338	1.000000	1.000000	1.000000	
7.100101	567.030947	599.620690	-32.469053	34.120690	1054.239387	1164.221482	47.100540	1.000000	1.000000	1.000000	
7.204068	567.692266	600.085381	-31.807734	34.585381	1011.731951	1196.148594	46.988089	1.000000	1.000000	1.000000	
7.299900	568.007264	600.042552	-31.492736	34.542552	991.792390	1193.187933	46.743773	1.000000	1.000000	1.000000	
7.400448	567.791863	599.918604	-31.708137	34.418604	1005.405946	1184.640285	46.797930	1.000000	1.000000	1.000000	
7.502830	567.433982	599.692735	-32.066018	34.192735	1028.229529	1169.143130	46.876142	1.000000	1.000000	1.000000	
7.602819	567.014740	599.447106	-32.485260	33.947106	1055.292095	1152.406028	46.986148	1.000000	1.000000	1.000000	
7.702742	566.616299	599.201478	-32.883701	33.701478	1081.337795	1135.789592	47.086382	1.000000	1.000000	1.000000	
7.799890	567.648712	603.256015	-31.851288	37.756015	1014.504553	1425.516636	49.396571	1.000000	1.000000	1.000000	
7.900098	568.721685	606.803032	-30.778315	41.303032	947.304682	1705.940415	51.509660	1.000000	1.000000	1.000000	
8.002365	569.754098	610.066129	-29.745902	44.566129	884.818696	1986.139811	53.581326	1.000000	1.000000	1.000000	
8.101007	570.786511	613.329225	-28.713489	47.829225	824.464463	2287.634811	55.786193	1.000000	1.000000	1.000000	
8.202721	571.818924	616.551762	-27.681076	51.051762	766.241983	2606.282450	58.073440	1.000000	1.000000	1.000000	
8.299387	572.953257	619.834619	-26.546743	54.334619	704.729580	2952.250869	60.472973	1.000000	1.000000	1.000000	
8.402903	574.087590	623.097716	-25.412410	57.597716	645.790600	3317.496935	62.954647	1.000000	1.000000	1.000000	
8.502864	575.242723	626.320253	-24.257277	60.820253	588.415507	3699.103220	65.479147	1.000000	1.000000	1.000000	
8.599418	576.397856	629.583350	-23.102144	64.083350	533.709078	4106.675791	68.120370	1.000000	1.000000	1.000000	
8.699977	577.552989	632.846447	-21.947011	67.346447	481.671313	4535.543966	70.832304	1.000000	1.000000	1.000000	
8.802869	578.708121	636.109544	-20.791879	70.609544	432.302213	4985.707745	73.607133	1.000000	1.000000	1.000000	
8.900326	579.965174	639.332081	-19.534826	73.832081	381.609410	5451.176223	76.372676	1.000000	1.000000	1.000000	
8.999801	581.426067	642.554618	-18.073933	77.054618	326.667040	5937.414191	79.145949	1.000000	1.000000	1.000000	
9.103466	582.866160	645.817715	-16.633840	80.317715	276.684622	6450.935376	82.022070	1.000000	1.000000	1.000000	
9.199377	584.327053	649.040252	-15.172947	83.540252	230.218312	6978.973734	84.906961	1.000000	1.000000	1.000000	
9.300826	585.869066	652.303349	-13.630934	86.803349	185.802355	7534.821423	87.867080	1.000000	1.000000	1.000000	
9.403310	587.431879	655.566446	-12.068121	90.066446	145.639539	8111.964717	90.871361	1.000000	1.000000	1.000000	
9.499550	588.994692	658.829543	-10.505308	93.329543	110.361493	8710.403614	93.918928	1.000000	1.000000	1.000000	
9.602880	590.578305	662.092640	-8.921695	96.592640	79.596639	9330.138114	97.003787	1.000000	1.000000	1.000000	
9.703690	592.141118	665.294377	-7.358882	99.794377	54.153143	9958.917688	100.065333	1.000000	1.000000	1.000000	
9.799892	593.724731	668.212194	-5.775269	102.712194	33.353732	10549.794798	102.874431	1.000000	1.000000	1.000000	
9.899875	595.266744	671.007291	-4.233256	105.507291	17.920456	11131.788450	105.592182	1.000000	1.000000	1.000000	
10.008738	596.808757	673.639108	-2.691243	108.139108	7.242789	11694.066668	108.172591	1.000000	1.000000	1.000000	
10.100541	598.371570	675.434765	-1.128430	109.934765	1.273354	12085.652539	109.940556	1.000000	1.000000	1.000000	
10.199387	599.893823	675.721382	0.393823	110.221382	0.155096	12148.753027	110.222085	1.000000	1.000000	1.000000	
10.302989	601.374476	674.723599	1.874476	109.223599	3.513660	11929.794549	109.239682	1.000000	1.000000	1.000000	
10.399630	602.835369	672.991576	3.335369	107.491576	11.124685	11554.438876	107.543310	1.000000	1.000000	1.000000	
10.499727	604.296262	671.238753	4.796262	105.738753	23.004127	11180.683846	105.847475	1.000000	1.000000	1.000000	
10.599350	605.757155	669.425610	6.257155	103.925610	39.151985	10800.532368	104.113805	1.000000	1.000000	1.000000	
10.702433	607.279408	667.653027	7.779408	102.153027	60.519183	10435.240875	102.448817	1.000000	1.000000	1.000000	
10.799827	608.801661	665.880444	9.301661	100.380444	86.520890	10076.233482	100.810487	1.000000	1.000000	1.000000	
10.899747	610.445594	664.188981	10.945594	98.688981	119.806018	9739.514911	99.294113	1.000000	1.000000	1.000000	
10.999493	612.233047	662.803278	12.733047	97.303278	162.130473	9467.927845	98.132861	1.000000	1.000000	1.000000	
11.107824	614.061059	661.459175	14.561059	95.959175	212.024453	9208.163198	97.057651	1.000000	1.000000	1.000000	
11.199547	615.908832	660.115072	16.408832	94.615072	269.249782	8952.011776	96.027400	1.000000	1.000000	1.000000	
11.302812	617.756605	658.709609	18.256605	93.209609	333.303640	8688.031132	94.980707	1.000000	1.000000	1.000000	
11.399416	619.544058	657.507986	20.044058	92.007986	401.764275	8465.469406	94.165990	1.000000	1.000000	1.000000	
11.508130	621.372071	657.019803	21.872071	91.519803	478.387503	8375.874255	94.097087	1.000000	1.000000	1.000000	
11.599359	622.263180	652.441629	22.763180	86.941629	518.162354	7558.846843	89.872183	1.000000	1.000000	1.000000	
11.700409	622.379488	648.393855	22.879488	82.893855	523.470984	6871.391256	85.993385	1.000000	1.000000	1.000000	
11.799359	622.332517	644.999202	22.832517	79.499202	521.323822	6320.123083	82.713040	1.000000	1.000000	1.000000	
11.900168	621.693785	642.521828	22.193785	77.021828	492.564105	5932.362018	80.155637	1.000000	1.000000	1.000000	
11.999214	620.891774	640.533255	21.391774	75.033255	457.607985	5629.989297	78.023056	1.000000	1.000000	1.000000	
12.103214	620.070002	638.544681	20.570002	73.044681	423.124993	5335.525426	75.885772	1.000000	1.000000	1.000000	
12.202787	619.288791	636.536347	19.788791	71.036347	391.596240	5046.162657	73.741161	1.000000	1.000000	1.000000	
12.299277	618.486779	634.547774	18.986779	69.047774	360.497786	4767.595074	71.610704	1.000000	1.000000	1.000000	
12.402895	617.665008	632.600800	18.165008	67.100800	329.967507	4502.517397	69.516077	1.000000	1.000000	1.000000	
12.499458	616.822436	630.694387	17.322436	65.194387	300.066797	4250.308055	67.456466	1.000000	1.000000	1.000000	
12.599289	616.000665	628.767173	16.500665	63.267173	272.271937	4002.735192	65.383539	1.000000	1.000000	1.000000	
12.704916	615.198653	626.860760	15.698653	61.360760	246.447713	3765.142809	63.337118	1.000000	1.000000	1.000000	
12.817995	614.315522	624.994906	14.815522	59.494906	219.499684	3539.643832	61.311855	1.000000	1.000000	1.000000	
12.899299	613.472950	623.088492	13.972950	57.588492	195.243338	3316.434451	59.259411	1.000000	1.000000	1.000000	
13.003006	612.630379	621.182079	13.130379	55.682079	172.406845	3100.493896	57.209271	1.000000	1.000000	1.000000	
13.102892	611.787807	619.275665	12.287807	53.775665	150.990206	2891.822166	55.161693	1.000000	1.000000	1.000000	
13.199291	610.945236	617.348452	11.445236	51.848452	130.993420	2688.261933	53.096660	1.000000	1.000000	1.000000	
13.302964	610.062104	615.442038	10.562104	49.942038	111.558045	2494.207161	51.046696	1.000000	1.000000	1.000000	
13.399216	609.219533	613.535624	9.719533	48.035624	94.469316	2307.421214	49.009086	1.000000	1.000000	1.000000	
13.502921	608.417521	611.629211	8.917521	46.129211	79.522184	2127.904093	46.983255	1.000000	1.000000	1.000000	
13.602769	607.513590	609.701997	8.013590	44.201997	64.217620	1953.816562	44.922535	1.000000	1.000000	1.000000	
13.702707	606.671018	607.795584	7.171018	42.295584	51.423502	1788.916399	42.899183	1.000000	1.000000	1.000000	
13.799393	605.869007	605.868370	6.369007	40.368370	40.564246	1629.605304	40.867708	1.000000	1.000000	1.000000	
13.902949	604.985875	603.961957	5.485875	38.461957	30.094826	1479.322099	38.851215	1.000000	1.000000	1.000000	
13.999207	604.102744	602.034743	4.602744	36.534743	21.185249	1334.787441	36.823534	1.000000	1.000000	1.000000	
14.100193	603.260172	600.128329	3.760172	34.628329	14.138895	1199.121193	34.831883	1.000000	1.000000	1.000000	
14.202710	607.050943	599.703233	7.550943	34.203233	57.016747	1169.861150	35.026817	1.000000	1.000000	1.000000	
14.303294	610.882275	599.278137	11.382275	33.778137	129.556179	1140.962520	35.644336	1.000000	1.000000	1.000000	
14.399229	614.713606	598.853040	15.213606	33.353040	231.453810	1112.425304	36.658957	1.000000	1.000000	1.000000	
14.502805	618.606297	598.427944	19.106297	32.927944	365.050600	1084.249502	38.069674	1.000000	1.000000	1.000000	
14.599203	622.498989	597.982048	22.998989	32.482048	528.953482	1055.083428	39.799961	1.000000	1.000000	1.000000	
14.703647	626.330320	597.556951	26.830320	32.056951	719.866072	1027.648137	41.803280	1.000000	1.000000	1.000000	
14.803411	630.161651	597.131855	30.661651	31.631855	940.136862	1000.574260	44.053503	1.000000	1.000000	1.000000	
14.899743	633.992983	596.706759	34.492983	31.206759	1189.765851	973.861797	46.514811	1.000000	1.000000	1.000000	
15.013522	637.845114	596.260863	38.345114	30.760863	1470.347764	946.230663	49.158707	1.000000	1.000000	1.000000	
15.099827	641.676445	595.835766	42.176445	30.335766	1778.852534	920.258712	51.952971	1.000000	1.000000	1.000000	
15.202806	645.528577	595.226590	46.028577	29.726590	2118.629861	883.670147	54.793248	1.000000	1.000000	1.000000	
15.299577	649.359908	594.557094	49.859908	29.057094	2486.010413	844.314688	57.708969	1.000000	1.000000	1.000000	
15.402796	652.518359	593.845997	53.018359	28.345997	2810.946411	803.495561	60.120229	1.000000	1.000000	1.000000	
15.499391	655.636250	593.134901	56.136250	27.634901	3151.278619	763.687751	62.569692	1.000000	1.000000	1.000000	
15.602857	658.713582	592.465405	59.213582	26.965405	3506.248270	727.133048	65.064440	1.000000	1.000000	1.000000	
15.702697	661.831473	591.815668	62.331473	26.315668	3885.212540	692.514400	67.658901	1.000000	1.000000	1.000000	
15.799178	664.949364	591.146172	65.449364	25.646172	4283.619303	657.726139	70.294704	1.000000	1.000000	1.000000	
15.902890	667.863416	590.435076	68.363416	24.935076	4673.556610	621.758001	72.768912	1.000000	1.000000	1.000000	
16.002768	670.716107	589.723979	71.216107	24.223979	5071.733902	586.801178	75.223235	1.000000	1.000000	1.000000	
16.100335	673.568798	588.993123	74.068798	23.493123	5486.186889	551.926832	77.705300	1.000000	1.000000	1.000000	
16.199218	676.401730	588.282027	76.901730	22.782027	5913.876024	519.020744	80.205341	1.000000	1.000000	1.000000	
16.299861	679.275221	587.551170	79.775221	22.051170	6364.085880	486.254119	82.766781	1.000000	1.000000	1.000000	
16.399236	682.148712	586.840074	82.648712	21.340074	6830.809641	455.398765	85.359290	1.000000	1.000000	1.000000	
16.498942	685.001404	586.414978	85.501404	20.914978	7310.490015	437.436298	88.022306	1.000000	1.000000	1.000000	
16.602620	687.671055	586.112602	88.171055	20.612602	7774.134921	424.879341	90.548408	1.000000	1.000000	1.000000	
16.699230	689.730226	585.810225	90.230226	20.310225	8141.493720	412.505248	92.487831	1.000000	1.000000	1.000000	
16.802694	691.423318	585.711689	91.923318	20.211689	8449.896302	408.512368	94.119120	1.000000	1.000000	1.000000	
16.899354	693.116409	585.613153	93.616409	20.113153	8764.032000	404.538907	95.752655	1.000000	1.000000	1.000000	
