AF-MATB V. 3.03
Programmed using MATLAB 7.5.0 and other Custom MATLAB Functions.

William Daniel Miller, Jr.
Air Force Research Laboratory
711th Human Performance Wing
Human Effectiveness Directorate
Applied Neuroscience Branch

RMS Target Value is:	2500.000000	
Main Tank Automation Lower Limit is:	2350.000000	
Main Tank Automation Upper Limit is:	2650.000000	


Event Time	Tank A Value	Tank B Value	Tank A Difference	Tank B Difference	Tank A Deviation	Tank B Deviation	Euclidian Distance From Target	Tank A In Range?	Tank B In Range?	Both In Range?
0.099079	2499.600779	2499.600779	-0.399221	-0.399221	0.159378	0.159378	0.564584	1.000000	1.000000	1.000000	
0.111092	2496.405960	2496.405960	-3.594040	-3.594040	12.917122	12.917122	5.082740	1.000000	1.000000	1.000000	
0.200374	2493.376493	2493.376493	-6.623507	-6.623507	43.870842	43.870842	9.367053	1.000000	1.000000	1.000000	
0.304606	2489.998167	2489.998167	-10.001833	-10.001833	100.036658	100.036658	14.144727	1.000000	1.000000	1.000000	
0.403999	2486.674117	2486.674117	-13.325883	-13.325883	177.579149	177.579149	18.845644	1.000000	1.000000	1.000000	
0.500796	2483.368523	2483.368523	-16.631477	-16.631477	276.606031	276.606031	23.520460	1.000000	1.000000	1.000000	
0.600561	2480.036710	2480.036710	-19.963290	-19.963290	398.532945	398.532945	28.232355	1.000000	1.000000	1.000000	
0.700438	2476.705047	2476.705047	-23.294953	-23.294953	542.654839	542.654839	32.944039	1.000000	1.000000	1.000000	
0.803766	2473.351849	2473.351849	-26.648151	-26.648151	710.123965	710.123965	37.686177	1.000000	1.000000	1.000000	
0.900572	2470.034150	2470.034150	-29.965850	-29.965850	897.952152	897.952152	42.378111	1.000000	1.000000	1.000000	
1.003838	2466.669618	2466.669618	-33.330382	-33.330382	1110.914375	1110.914375	47.136278	1.000000	1.000000	1.000000	
1.100385	2463.375999	2463.375999	-36.624001	-36.624001	1341.317434	1341.317434	51.794159	1.000000	1.000000	1.000000	
1.200416	2460.038626	2460.038626	-39.961374	-39.961374	1596.911398	1596.911398	56.513917	1.000000	1.000000	1.000000	
1.301196	2456.680616	2456.680616	-43.319384	-43.319384	1876.569003	1876.569003	61.262860	1.000000	1.000000	1.000000	
1.400319	2453.375642	2453.375642	-46.624358	-46.624358	2173.830753	2173.830753	65.936799	1.000000	1.000000	1.000000	
1.503885	2450.006875	2450.006875	-49.993125	-49.993125	2499.312509	2499.312509	70.700955	1.000000	1.000000	1.000000	
1.603069	2446.700254	2446.700254	-53.299746	-53.299746	2840.862874	2840.862874	75.377223	1.000000	1.000000	1.000000	
1.703712	2443.340876	2443.340876	-56.659124	-56.659124	3210.256339	3210.256339	80.128102	1.000000	1.000000	1.000000	
1.800216	2440.046445	2440.046445	-59.953555	-59.953555	3594.428798	3594.428798	84.787131	1.000000	1.000000	1.000000	
1.904284	2436.664077	2436.664077	-63.335923	-63.335923	4011.439155	4011.439155	89.570521	1.000000	1.000000	1.000000	
2.000351	2433.373645	2433.373645	-66.626355	-66.626355	4439.071223	4439.071223	94.223895	1.000000	1.000000	1.000000	
2.105124	2430.053615	2430.053615	-69.946385	-69.946385	4892.496753	4892.496753	98.919126	1.000000	1.000000	1.000000	
2.201154	2426.696375	2426.696375	-73.303625	-73.303625	5373.421414	5373.421414	103.666980	1.000000	1.000000	1.000000	
2.303099	2423.365461	2423.365461	-76.634539	-76.634539	5872.852642	5872.852642	108.377605	1.000000	1.000000	1.000000	
2.400317	2420.043421	2420.043421	-79.956579	-79.956579	6393.054562	6393.054562	113.075679	1.000000	1.000000	1.000000	
2.503920	2416.669222	2416.669222	-83.330778	-83.330778	6944.018527	6944.018527	117.847516	1.000000	1.000000	1.000000	
2.600412	2413.373080	2413.373080	-86.626920	-86.626920	7504.223250	7504.223250	122.508965	1.000000	1.000000	1.000000	
2.699934	2410.059659	2410.059659	-89.940341	-89.940341	8089.265002	8089.265002	127.194851	1.000000	1.000000	1.000000	
2.803855	2406.670939	2406.670939	-93.329061	-93.329061	8710.313542	8710.313542	131.987223	1.000000	1.000000	1.000000	
2.900737	2403.371140	2403.371140	-96.628860	-96.628860	9337.136497	9337.136497	136.653844	1.000000	1.000000	1.000000	
3.003181	2400.028699	2400.028699	-99.971301	-99.971301	9994.261001	9994.261001	141.380770	1.000000	1.000000	1.000000	
3.100430	2396.706446	2396.706446	-103.293554	-103.293554	10669.558398	10669.558398	146.079146	1.000000	1.000000	1.000000	
3.203804	2393.337444	2393.337444	-106.662556	-106.662556	11376.900939	11376.900939	150.843634	1.000000	1.000000	1.000000	
3.300268	2390.044424	2390.044424	-109.955576	-109.955576	12090.228750	12090.228750	155.500667	1.000000	1.000000	1.000000	
3.403807	2386.670760	2386.670760	-113.329240	-113.329240	12843.516680	12843.516680	160.271748	1.000000	1.000000	1.000000	
3.500274	2383.378467	2383.378467	-116.621533	-116.621533	13600.581943	13600.581943	164.927754	1.000000	1.000000	1.000000	
3.603932	2380.004931	2380.004931	-119.995069	-119.995069	14398.816475	14398.816475	169.698653	1.000000	1.000000	1.000000	
3.700195	2376.715205	2376.715205	-123.284795	-123.284795	15199.140691	15199.140691	174.351029	1.000000	1.000000	1.000000	
3.803779	2373.340130	2373.340130	-126.659870	-126.659870	16042.722772	16042.722772	179.124107	1.000000	1.000000	1.000000	
3.900259	2370.042191	2370.042191	-129.957809	-129.957809	16889.032090	16889.032090	183.788096	1.000000	1.000000	1.000000	
4.000338	2366.707919	2366.707919	-133.292081	-133.292081	17766.778866	17766.778866	188.503469	1.000000	1.000000	1.000000	
4.100797	2363.392487	2363.392487	-136.607513	-136.607513	18661.612528	18661.612528	193.192197	1.000000	1.000000	1.000000	
4.200793	2360.034328	2360.034328	-139.965672	-139.965672	19590.389414	19590.389414	197.941352	1.000000	1.000000	1.000000	
4.303772	2356.673623	2356.673623	-143.326377	-143.326377	20542.450254	20542.450254	202.694106	1.000000	1.000000	1.000000	
4.400675	2353.371386	2353.371386	-146.628614	-146.628614	21499.950330	21499.950330	207.364174	1.000000	1.000000	1.000000	
4.503714	2350.009377	2350.009377	-149.990623	-149.990623	22497.186848	22497.186848	212.118773	1.000000	1.000000	1.000000	
4.603699	2346.676110	2346.676110	-153.323890	-153.323890	23508.215114	23508.215114	216.832724	0.000000	0.000000	0.000000	
4.700346	2343.375713	2343.375713	-156.624287	-156.624287	24531.167391	24531.167391	221.500191	0.000000	0.000000	0.000000	
4.800432	2342.708311	2340.038703	-157.291689	-159.961297	24740.675509	25587.616484	224.339680	0.000000	0.000000	0.000000	
4.902963	2342.041649	2336.705393	-157.958351	-163.294607	24950.840719	26665.128558	227.191482	0.000000	0.000000	0.000000	
5.000736	2341.375299	2333.373645	-158.624701	-166.626355	25161.795752	27764.342288	230.056815	0.000000	0.000000	0.000000	
5.103191	2340.706926	2330.031781	-159.293074	-169.968219	25374.283342	28889.195559	232.945227	0.000000	0.000000	0.000000	
5.200835	2340.041693	2326.705614	-159.958307	-173.294386	25586.660030	30030.944348	235.833849	0.000000	0.000000	0.000000	
5.300194	2342.370025	2323.379425	-157.629975	-176.620575	24847.209087	31194.827467	236.731993	0.000000	0.000000	0.000000	
5.400813	2344.708072	2320.039358	-155.291928	-179.960642	24115.582876	32385.832828	237.700264	0.000000	0.000000	0.000000	
5.499859	2347.029308	2316.723306	-152.970692	-183.276694	23400.032495	33590.346670	238.726578	0.000000	0.000000	0.000000	
5.603617	2349.396876	2313.341066	-150.603124	-186.658934	22681.300962	34841.557542	239.839235	0.000000	0.000000	0.000000	
5.699898	2351.696182	2310.056344	-148.303818	-189.943656	21994.022544	36078.592483	240.982603	1.000000	0.000000	0.000000	
5.804151	2354.069213	2306.666299	-145.930787	-193.333701	21295.794539	37377.920005	242.226577	1.000000	0.000000	0.000000	
5.900152	2356.369671	2303.379930	-143.630329	-196.620070	20629.671266	38659.451995	243.493580	1.000000	0.000000	0.000000	
6.000286	2358.702524	2300.047283	-141.297476	-199.952717	19964.976638	39981.089051	244.838857	1.000000	0.000000	0.000000	
6.105616	2361.051964	2296.690941	-138.948036	-203.309059	19306.556828	41334.573409	246.254198	1.000000	0.000000	0.000000	
6.200328	2363.374113	2293.373585	-136.625887	-206.626415	18666.632994	42694.475459	247.711745	1.000000	0.000000	0.000000	
6.301754	2365.714645	2290.029967	-134.285355	-209.970033	18032.556489	44087.414648	249.238783	1.000000	0.000000	0.000000	
6.403788	2368.061450	2289.694709	-131.938550	-210.305291	17407.781006	44228.315228	248.266180	1.000000	0.000000	0.000000	
6.500079	2370.365770	2289.365521	-129.634230	-210.634479	16805.033488	44366.883820	247.329572	1.000000	0.000000	0.000000	
6.600481	2372.708728	2289.030813	-127.291272	-210.969187	16203.067989	44507.998022	246.396157	1.000000	0.000000	0.000000	
6.703856	2375.065038	2288.694197	-124.934962	-211.305803	15608.744697	44650.142442	245.476857	1.000000	0.000000	0.000000	
6.800350	2377.373670	2288.364392	-122.626330	-211.635608	15037.216831	44789.630440	244.595272	1.000000	0.000000	0.000000	
6.903839	2379.732136	2288.027469	-120.267864	-211.972531	14464.359129	44932.354068	243.714409	1.000000	0.000000	0.000000	
7.003636	2382.061471	2287.694706	-117.938529	-212.305294	13909.496659	45073.537662	242.864230	1.000000	0.000000	0.000000	
7.100038	2384.366390	2289.999626	-115.633610	-210.000374	13371.131731	44100.157182	239.731702	1.000000	0.000000	0.000000	
7.203916	2386.731652	2292.364888	-113.268348	-207.635112	12829.718567	43112.339724	236.520735	1.000000	0.000000	0.000000	
7.299839	2389.028413	2294.661649	-110.971587	-205.338351	12314.693079	42163.838468	233.406366	1.000000	0.000000	0.000000	
7.400388	2391.376011	2297.009247	-108.623989	-202.990753	11799.170947	41205.245884	230.226881	1.000000	0.000000	0.000000	
7.502677	2393.707846	2299.341082	-106.292154	-200.658918	11298.021993	40264.001507	227.072727	1.000000	0.000000	0.000000	
7.602664	2396.038678	2301.671914	-103.961322	-198.328086	10807.956486	39334.029872	223.924064	1.000000	0.000000	0.000000	
7.702589	2398.372159	2304.005395	-101.627841	-195.994605	10328.217971	38413.885154	220.776138	1.000000	0.000000	0.000000	
7.799804	2400.684953	2306.318188	-99.315047	-193.681812	9863.478594	37512.644122	217.660568	1.000000	0.000000	0.000000	
7.900036	2403.029347	2308.662583	-96.970653	-191.337417	9403.307485	36610.007173	214.507144	1.000000	0.000000	0.000000	
8.002211	2405.361946	2310.995181	-94.638054	-189.004819	8956.361337	35722.821513	211.374509	1.000000	0.000000	0.000000	
8.100946	2407.694604	2313.327839	-92.305396	-186.672161	8520.286164	34846.495527	208.246925	1.000000	0.000000	0.000000	
8.202566	2410.037202	2315.670438	-89.962798	-184.329562	8093.305039	33977.387596	205.111415	1.000000	0.000000	0.000000	
8.299317	2412.347331	2317.980566	-87.652669	-182.019434	7682.990440	33131.074246	202.024911	1.000000	0.000000	0.000000	
8.402749	2414.706575	2320.339811	-85.293425	-179.660189	7274.968329	32277.783607	198.878737	1.000000	0.000000	0.000000	
8.502712	2417.038814	2322.672050	-82.961186	-177.327950	6882.558356	31445.201929	195.774769	1.000000	0.000000	0.000000	
8.599355	2419.346578	2324.979813	-80.653422	-175.020187	6504.974529	30632.065746	192.709731	1.000000	0.000000	0.000000	
8.699914	2421.696990	2327.330226	-78.303010	-172.669774	6131.361376	29814.850985	189.594864	1.000000	0.000000	0.000000	
8.802716	2424.040995	2329.674231	-75.959005	-170.325769	5769.770403	29010.867629	186.495678	1.000000	0.000000	0.000000	
8.900258	2426.365824	2331.999060	-73.634176	-168.000940	5421.991834	28224.315874	183.429299	1.000000	0.000000	0.000000	
8.999723	2428.684366	2334.317602	-71.315634	-165.682398	5085.919650	27450.657125	180.378981	1.000000	0.000000	0.000000	
9.103310	2431.044434	2336.677669	-68.955566	-163.322331	4754.870111	26674.183667	177.282412	1.000000	0.000000	0.000000	
9.199316	2433.347736	2338.980972	-66.652264	-161.019028	4442.524249	25927.127386	174.268906	1.000000	0.000000	0.000000	
9.300731	2435.692071	2341.325307	-64.307929	-158.674693	4135.509740	25177.658337	171.210888	1.000000	0.000000	0.000000	
9.403157	2438.042393	2343.675629	-61.957607	-156.324371	3838.745013	24437.308955	168.154851	1.000000	0.000000	0.000000	
9.499478	2440.348495	2345.981731	-59.651505	-154.018269	3558.302011	23721.627204	165.166368	1.000000	0.000000	0.000000	
9.602727	2442.707605	2348.340841	-57.292395	-151.659159	3282.418521	23000.500614	162.120076	1.000000	0.000000	0.000000	
9.702602	2445.037748	2350.670984	-54.962252	-149.329016	3020.849110	22299.155038	159.122607	1.000000	1.000000	1.000000	
9.799846	2447.350841	2352.984077	-52.649159	-147.015923	2771.933936	21613.681704	156.158944	1.000000	1.000000	1.000000	
9.899833	2449.693679	2355.326914	-50.306321	-144.673086	2530.725964	20930.301722	153.169931	1.000000	1.000000	1.000000	
10.008633	2452.038492	2357.671728	-47.961508	-142.328272	2300.306220	20257.337030	150.192021	1.000000	1.000000	1.000000	
10.100495	2454.346645	2359.979881	-45.653355	-140.020119	2084.228817	19605.633814	147.274786	1.000000	1.000000	1.000000	
10.199345	2456.679797	2362.313033	-43.320203	-137.686967	1876.639966	18957.700914	144.341057	1.000000	1.000000	1.000000	
10.302886	2459.041048	2364.674283	-40.958952	-135.325717	1677.635778	18313.049610	141.388420	1.000000	1.000000	1.000000	
10.399575	2461.346371	2366.979607	-38.653629	-133.020393	1494.103026	17694.425024	138.522663	1.000000	1.000000	1.000000	
10.499678	2463.688775	2369.322010	-36.311225	-130.677990	1318.505090	17076.737010	135.629061	1.000000	1.000000	1.000000	
10.599309	2466.012406	2371.645642	-33.987594	-128.354358	1155.156542	16474.841300	132.778002	1.000000	1.000000	1.000000	
10.702329	2468.363522	2373.996758	-31.636478	-126.003242	1000.866745	15876.817106	129.914140	1.000000	1.000000	1.000000	
10.799785	2470.681465	2376.314701	-29.318535	-123.685299	859.576501	15298.053310	127.112666	1.000000	1.000000	1.000000	
10.899705	2473.024377	2378.657613	-26.975623	-121.342387	727.684217	14723.974889	124.304703	1.000000	1.000000	1.000000	
10.999450	2475.349730	2380.982966	-24.650270	-119.017034	607.635795	14165.054395	121.542956	1.000000	1.000000	1.000000	
11.107568	2477.798748	2383.431984	-22.201252	-116.568016	492.895580	13588.102388	118.663381	1.000000	1.000000	1.000000	
11.199505	2480.012846	2385.646082	-19.987154	-114.353918	399.486318	13076.818610	116.087488	1.000000	1.000000	1.000000	
11.302708	2482.373887	2388.007123	-17.626113	-111.992877	310.679860	12542.404589	113.371445	1.000000	1.000000	1.000000	
11.399373	2484.679495	2390.312730	-15.320505	-109.687270	234.717877	12031.297092	110.752043	1.000000	1.000000	1.000000	
11.508083	2487.217343	2392.850579	-12.782657	-107.149421	163.396316	11480.998467	107.909197	1.000000	1.000000	1.000000	
11.599315	2489.346009	2394.979244	-10.653991	-105.020756	113.507528	11029.359092	105.559777	1.000000	1.000000	1.000000	
11.700361	2491.697948	2397.331184	-8.302052	-102.668816	68.924066	10540.885845	103.003932	1.000000	1.000000	1.000000	
11.799316	2494.013720	2399.646956	-5.986280	-100.353044	35.835543	10070.733435	100.531433	1.000000	1.000000	1.000000	
11.900122	2496.361109	2401.994344	-3.638891	-98.005656	13.241529	9605.108523	98.073187	1.000000	1.000000	1.000000	
11.999172	2498.677794	2404.311030	-1.322206	-95.688970	1.748228	9156.378993	95.698105	1.000000	1.000000	1.000000	
12.103151	2501.047547	2406.680783	1.047547	-93.319217	1.097356	8708.476239	93.325096	1.000000	1.000000	1.000000	
12.202683	2503.373140	2409.006376	3.373140	-90.993624	11.378073	8279.839680	91.056124	1.000000	1.000000	1.000000	
12.299235	2505.678538	2411.311774	5.678538	-88.688226	32.245797	7865.601444	88.869833	1.000000	1.000000	1.000000	
12.402789	2508.040208	2413.673443	8.040208	-86.326557	64.644942	7452.274363	86.700169	1.000000	1.000000	1.000000	
12.499415	2510.352477	2415.985713	10.352477	-84.014287	107.173786	7058.400439	84.649715	1.000000	1.000000	1.000000	
12.599244	2512.678204	2418.311440	12.678204	-81.688560	160.736869	6673.020818	82.666545	1.000000	1.000000	1.000000	
12.704811	2515.088915	2420.722150	15.088915	-79.277850	227.675351	6284.977425	80.701009	1.000000	1.000000	1.000000	
12.817948	2517.775877	2423.409112	17.775877	-76.590888	315.981790	5866.164087	78.626623	1.000000	1.000000	1.000000	
12.899258	2519.679293	2425.312528	19.679293	-74.687472	387.274564	5578.218414	77.236604	1.000000	1.000000	1.000000	
13.002901	2522.040932	2427.674168	22.040932	-72.325832	485.802700	5231.025975	75.609713	1.000000	1.000000	1.000000	
13.102788	2524.370073	2430.003308	24.370073	-69.996692	593.900443	4899.536847	74.117726	1.000000	1.000000	1.000000	
13.199248	2526.678974	2432.312210	26.678974	-67.687790	711.767650	4581.636976	72.755788	1.000000	1.000000	1.000000	
13.302859	2529.040479	2434.673714	29.040479	-65.326286	843.349408	4267.523588	71.490370	1.000000	1.000000	1.000000	
13.399173	2531.345742	2436.978978	31.345742	-63.021022	982.555566	3971.649213	70.386112	1.000000	1.000000	1.000000	
13.502815	2533.705286	2439.338522	33.705286	-60.661478	1136.046319	3679.814932	69.396407	1.000000	1.000000	1.000000	
13.602663	2536.037660	2441.670896	36.037660	-58.329104	1298.712938	3402.284418	68.563820	1.000000	1.000000	1.000000	
13.702599	2538.371246	2444.004482	38.371246	-55.995518	1472.352544	3135.498043	67.881150	1.000000	1.000000	1.000000	
13.799350	2540.681674	2446.314910	40.681674	-53.685090	1654.998637	2882.088879	67.357906	1.000000	1.000000	1.000000	
13.902843	2543.038209	2448.671445	43.038209	-51.328555	1852.287467	2634.620558	66.984386	1.000000	1.000000	1.000000	
13.999161	2545.343458	2450.976694	45.343458	-49.023306	2056.029184	2403.284568	66.778093	1.000000	1.000000	1.000000	
14.100151	2547.679769	2453.313004	47.679769	-46.686996	2273.360354	2179.675554	66.731072	1.000000	1.000000	1.000000	
14.202601	2550.036274	2455.669509	50.036274	-44.330491	2503.628695	1965.192395	66.849242	1.000000	1.000000	1.000000	
14.303186	2552.375788	2458.009024	52.375788	-41.990976	2743.223182	1763.242086	67.130211	1.000000	1.000000	1.000000	
14.399186	2554.680483	2460.313718	54.680483	-39.686282	2989.955207	1575.000940	67.564459	1.000000	1.000000	1.000000	
14.502698	2557.032347	2462.665583	57.032347	-37.334417	3252.688631	1393.858703	68.165588	1.000000	1.000000	1.000000	
14.599161	2559.346682	2464.979918	59.346682	-35.020082	3522.028722	1226.406136	68.908888	1.000000	1.000000	1.000000	
14.703527	2561.709325	2467.342561	61.709325	-32.657439	3808.040798	1066.508343	69.817971	1.000000	1.000000	1.000000	
14.803305	2564.044917	2469.678153	64.044917	-30.321847	4101.751434	919.414409	70.860185	1.000000	1.000000	1.000000	
14.899693	2566.357576	2471.990812	66.357576	-28.009188	4403.327887	784.514636	72.026679	1.000000	1.000000	1.000000	
15.013418	2568.688812	2474.322048	68.688812	-25.677952	4718.152898	659.357237	73.331508	1.000000	1.000000	1.000000	
15.099772	2571.015767	2476.649002	71.015767	-23.350998	5043.239129	545.269090	74.756326	1.000000	1.000000	1.000000	
15.202698	2573.370071	2479.003307	73.370071	-20.996693	5383.167346	440.861125	76.315323	1.000000	1.000000	1.000000	
15.299524	2575.682296	2481.315531	75.682296	-18.684469	5727.809883	349.109369	77.954597	1.000000	1.000000	1.000000	
15.402688	2578.036510	2483.669746	78.036510	-16.330254	6089.696942	266.677198	79.726872	1.000000	1.000000	1.000000	
15.499347	2580.347238	2485.980473	80.347238	-14.019527	6455.678632	196.547124	81.561178	1.000000	1.000000	1.000000	
15.602749	2582.705913	2488.339149	82.705913	-11.660851	6840.268120	135.975444	83.523910	1.000000	1.000000	1.000000	
15.702589	2585.037524	2490.670759	85.037524	-9.329241	7231.380448	87.034730	85.547736	1.000000	1.000000	1.000000	
15.799133	2587.343671	2492.976906	87.343671	-7.023094	7628.916789	49.323847	87.625571	1.000000	1.000000	1.000000	
15.902782	2589.708723	2495.341959	89.708723	-4.658041	8047.655030	21.697347	89.829574	1.000000	1.000000	1.000000	
16.002661	2592.036980	2497.670216	92.036980	-2.329784	8470.805755	5.427894	92.066463	1.000000	1.000000	1.000000	
16.100291	2594.347888	2499.981123	94.347888	-0.018877	8901.523884	0.000356	94.347889	1.000000	1.000000	1.000000	
