AF-MATB V. 3.03
Programmed using MATLAB 7.5.0 and other Custom MATLAB Functions.

William Daniel Miller, Jr.
Air Force Research Laboratory
711th Human Performance Wing
Human Effectiveness Directorate
Applied Neuroscience Branch

RMS Target Value is:	2500.000000	
Main Tank Automation Lower Limit is:	2350.000000	
Main Tank Automation Upper Limit is:	2650.000000	


Event Time	Tank A Value	Tank B Value	Tank A Difference	Tank B Difference	Tank A Deviation	Tank B Deviation	Euclidian Distance From Target	Tank A In Range?	Tank B In Range?	Both In Range?
0.099090	2499.575159	2499.575159	-0.424841	-0.424841	0.180490	0.180490	0.600816	1.000000	1.000000	1.000000	
0.111321	2496.398903	2496.398903	-3.601097	-3.601097	12.967899	12.967899	5.092720	1.000000	1.000000	1.000000	
0.198400	2493.443408	2493.443408	-6.556592	-6.556592	42.988900	42.988900	9.272421	1.000000	1.000000	1.000000	
0.298317	2490.110847	2490.110847	-9.889153	-9.889153	97.795355	97.795355	13.985375	1.000000	1.000000	1.000000	
0.401956	2486.740989	2486.740989	-13.259011	-13.259011	175.801366	175.801366	18.751073	1.000000	1.000000	1.000000	
0.498269	2483.446173	2483.446173	-16.553827	-16.553827	274.029188	274.029188	23.410647	1.000000	1.000000	1.000000	
0.598368	2480.109720	2480.109720	-19.890280	-19.890280	395.623256	395.623256	28.129104	1.000000	1.000000	1.000000	
0.702038	2476.737424	2476.737424	-23.262576	-23.262576	541.147428	541.147428	32.898250	1.000000	1.000000	1.000000	
0.798244	2473.446201	2473.446201	-26.553799	-26.553799	705.104251	705.104251	37.552743	1.000000	1.000000	1.000000	
0.901712	2470.072195	2470.072195	-29.927805	-29.927805	895.673528	895.673528	42.324308	1.000000	1.000000	1.000000	
1.001552	2466.744124	2466.744124	-33.255876	-33.255876	1105.953267	1105.953267	47.030910	1.000000	1.000000	1.000000	
1.098154	2463.446464	2463.446464	-36.553536	-36.553536	1336.161004	1336.161004	51.694507	1.000000	1.000000	1.000000	
1.198313	2460.106460	2460.106460	-39.893540	-39.893540	1591.494498	1591.494498	56.417985	1.000000	1.000000	1.000000	
1.298144	2456.779352	2456.779352	-43.220648	-43.220648	1868.024381	1868.024381	61.123226	1.000000	1.000000	1.000000	
1.401619	2453.405325	2453.405325	-46.594675	-46.594675	2171.063747	2171.063747	65.894821	1.000000	1.000000	1.000000	
1.498194	2450.112647	2450.112647	-49.887353	-49.887353	2488.747967	2488.747967	70.551371	1.000000	1.000000	1.000000	
1.601679	2446.739710	2446.739710	-53.260290	-53.260290	2836.658449	2836.658449	75.321424	1.000000	1.000000	1.000000	
1.698258	2443.445215	2443.445215	-56.554785	-56.554785	3198.443711	3198.443711	79.980544	1.000000	1.000000	1.000000	
1.801868	2440.071786	2440.071786	-59.928214	-59.928214	3591.390801	3591.390801	84.751293	1.000000	1.000000	1.000000	
1.901859	2436.741192	2436.741192	-63.258808	-63.258808	4001.676739	4001.676739	89.461464	1.000000	1.000000	1.000000	
1.998229	2433.446697	2433.446697	-66.553303	-66.553303	4429.342145	4429.342145	94.120584	1.000000	1.000000	1.000000	
2.115447	2430.072349	2430.072349	-69.927651	-69.927651	4889.876416	4889.876416	98.892633	1.000000	1.000000	1.000000	
2.198336	2426.779500	2426.779500	-73.220500	-73.220500	5361.241629	5361.241629	103.549424	1.000000	1.000000	1.000000	
2.302011	2423.406328	2423.406328	-76.593672	-76.593672	5866.590609	5866.590609	108.319810	1.000000	1.000000	1.000000	
2.398675	2420.108774	2420.108774	-79.891226	-79.891226	6382.607938	6382.607938	112.983255	1.000000	1.000000	1.000000	
2.501891	2416.742659	2416.742659	-83.257341	-83.257341	6931.784758	6931.784758	117.743660	1.000000	1.000000	1.000000	
2.598254	2413.446111	2413.446111	-86.553889	-86.553889	7491.575700	7491.575700	122.405684	1.000000	1.000000	1.000000	
2.698271	2410.110406	2410.110406	-89.889594	-89.889594	8080.139103	8080.139103	127.123083	1.000000	1.000000	1.000000	
2.801716	2406.742922	2406.742922	-93.257078	-93.257078	8696.882509	8696.882509	131.885424	1.000000	1.000000	1.000000	
2.898535	2403.440857	2403.440857	-96.559143	-96.559143	9323.668169	9323.668169	136.555250	1.000000	1.000000	1.000000	
3.001940	2400.070122	2400.070122	-99.929878	-99.929878	9985.980419	9985.980419	141.322188	1.000000	1.000000	1.000000	
3.101805	2396.740470	2396.740470	-103.259530	-103.259530	10662.530624	10662.530624	146.031028	1.000000	1.000000	1.000000	
3.198185	2393.445696	2393.445696	-106.554304	-106.554304	11353.819674	11353.819674	150.690542	1.000000	1.000000	1.000000	
3.298613	2390.103148	2390.103148	-109.896852	-109.896852	12077.318111	12077.318111	155.417619	1.000000	1.000000	1.000000	
3.402338	2386.734638	2386.734638	-113.265362	-113.265362	12829.042275	12829.042275	160.181411	1.000000	1.000000	1.000000	
3.498580	2383.439073	2383.439073	-116.560927	-116.560927	13586.449682	13586.449682	164.842044	1.000000	1.000000	1.000000	
3.602127	2380.067975	2380.067975	-119.932025	-119.932025	14383.690523	14383.690523	169.609496	1.000000	1.000000	1.000000	
3.701840	2376.741552	2376.741552	-123.258448	-123.258448	15192.645084	15192.645084	174.313769	1.000000	1.000000	1.000000	
3.798208	2373.448553	2373.448553	-126.551447	-126.551447	16015.268685	16015.268685	178.970772	1.000000	1.000000	1.000000	
3.901687	2370.074911	2370.074911	-129.925089	-129.925089	16880.528838	16880.528838	183.741823	1.000000	1.000000	1.000000	
4.001698	2366.741088	2366.741088	-133.258912	-133.258912	17757.937731	17757.937731	188.456561	1.000000	1.000000	1.000000	
4.099203	2363.441139	2363.441139	-136.558861	-136.558861	18648.322541	18648.322541	193.123393	1.000000	1.000000	1.000000	
4.201702	2360.071987	2360.071987	-139.928013	-139.928013	19579.848740	19579.848740	197.888093	1.000000	1.000000	1.000000	
4.302363	2356.735128	2356.735128	-143.264872	-143.264872	20524.823687	20524.823687	202.607126	1.000000	1.000000	1.000000	
4.398354	2353.441766	2353.441766	-146.558234	-146.558234	21479.316098	21479.316098	207.264643	1.000000	1.000000	1.000000	
4.498280	2350.110594	2350.110594	-149.889406	-149.889406	22466.833963	22466.833963	211.975630	1.000000	1.000000	1.000000	
4.601532	2349.437093	2346.743089	-150.562907	-153.256911	22669.188893	23487.680684	214.841499	0.000000	0.000000	0.000000	
4.698441	2348.777715	2343.446199	-151.222285	-156.553801	22868.179445	24509.092707	217.663208	0.000000	0.000000	0.000000	
4.802024	2348.102952	2340.072385	-151.897048	-159.927615	23072.713071	25576.842020	220.566441	0.000000	0.000000	0.000000	
4.901686	2347.437240	2336.743823	-152.562760	-163.256177	23275.395757	26652.579396	223.445687	0.000000	0.000000	0.000000	
4.998353	2346.777669	2333.445970	-153.222331	-166.554030	23477.082609	27740.244956	226.312456	0.000000	0.000000	0.000000	
5.098250	2346.111285	2332.779586	-153.888715	-167.220414	23681.736481	27962.666889	227.254050	0.000000	0.000000	0.000000	
5.201673	2345.437280	2332.105580	-154.562720	-167.894420	23889.634501	28188.536192	228.206421	0.000000	0.000000	0.000000	
5.298354	2344.777641	2331.445941	-155.222359	-168.554059	24093.980827	28410.470737	229.138499	0.000000	0.000000	0.000000	
5.402081	2344.103079	2330.771380	-155.896921	-169.228620	24303.849979	28638.325996	230.091669	0.000000	0.000000	0.000000	
5.501762	2343.437319	2330.105620	-156.562681	-169.894380	24511.872927	28864.100356	231.032407	0.000000	0.000000	0.000000	
5.598218	2342.777907	2329.446208	-157.222093	-170.553792	24718.786477	29088.596080	231.964184	0.000000	0.000000	0.000000	
5.701899	2342.102764	2328.771064	-157.897236	-171.228936	24931.537207	29319.348427	232.918195	0.000000	0.000000	0.000000	
5.801630	2341.437334	2328.105634	-158.562666	-171.894366	25142.119173	29547.673023	233.858488	0.000000	0.000000	0.000000	
5.898134	2340.778199	2327.446500	-159.221801	-172.553500	25351.581824	29774.710435	234.789890	0.000000	0.000000	0.000000	
6.001682	2340.103099	2326.771399	-159.896901	-173.228601	25567.019055	30008.148144	235.743859	0.000000	0.000000	0.000000	
6.104078	2339.436591	2326.104891	-160.563409	-173.895109	25780.608412	30239.508869	236.685693	0.000000	0.000000	0.000000	
6.198724	2338.776011	2325.444311	-161.223989	-174.555689	25993.174723	30469.688488	237.619156	0.000000	0.000000	0.000000	
6.298237	2338.110508	2324.778808	-161.889492	-175.221192	26208.207675	30702.466008	238.559581	0.000000	0.000000	0.000000	
6.401810	2337.435989	2324.104289	-162.564011	-175.895711	26427.057705	30939.301006	239.512753	0.000000	0.000000	0.000000	
6.498209	2336.777817	2323.446117	-163.222183	-176.553883	26641.481052	31171.273455	240.442830	0.000000	0.000000	0.000000	
6.601833	2336.103208	2322.771509	-163.896792	-177.228491	26862.158375	31409.938140	241.396140	0.000000	0.000000	0.000000	
6.701618	2335.437427	2322.105728	-164.562573	-177.894272	27080.840341	31646.372088	242.336981	0.000000	0.000000	0.000000	
6.801714	2334.770496	2321.438796	-165.229504	-178.561204	27300.789039	31884.103443	243.279453	0.000000	0.000000	0.000000	
6.898208	2334.111383	2320.779683	-165.888617	-179.220317	27519.033277	32119.921873	244.210883	0.000000	0.000000	0.000000	
7.002461	2333.434879	2320.103180	-166.565121	-179.896820	27743.939391	32362.865870	245.166893	0.000000	0.000000	0.000000	
7.098376	2332.777875	2319.446176	-167.222125	-180.553824	27963.239062	32599.683510	246.095353	0.000000	0.000000	0.000000	
7.201794	2332.103224	2318.771524	-167.896776	-181.228476	28189.327539	32843.760489	247.048756	0.000000	0.000000	0.000000	
7.298175	2331.444667	2318.112967	-168.555333	-181.887033	28410.900405	33082.892721	247.979421	0.000000	0.000000	0.000000	
7.398276	2330.777337	2317.445638	-169.222663	-182.554362	28636.309519	33326.095100	248.922487	0.000000	0.000000	0.000000	
7.501818	2330.103571	2316.771872	-169.896429	-183.228128	28864.796490	33572.546967	249.874655	0.000000	0.000000	0.000000	
7.601653	2329.437500	2316.105800	-170.562500	-183.894200	29091.566557	33817.076770	250.815955	0.000000	0.000000	0.000000	
7.698117	2328.778006	2315.446306	-171.221994	-184.553694	29316.971243	34060.065797	251.747963	0.000000	0.000000	0.000000	
7.801571	2331.136352	2314.772493	-168.863648	-185.227507	28514.931543	34309.229257	250.647483	0.000000	0.000000	0.000000	
7.898496	2333.447963	2314.112033	-166.552037	-185.887967	27739.581038	34554.336263	249.587494	0.000000	0.000000	0.000000	
8.001725	2335.806040	2313.438297	-164.193960	-186.561703	26959.656575	34805.269099	248.525503	0.000000	0.000000	0.000000	
8.099031	2338.110959	2312.779748	-161.889041	-187.220252	26208.061576	35051.422596	247.506534	0.000000	0.000000	0.000000	
8.201457	2340.470009	2315.138798	-159.529991	-184.861202	25449.818062	34173.663906	244.179201	0.000000	0.000000	0.000000	
8.298194	2342.778371	2317.447161	-157.221629	-182.552839	24718.640556	33325.539175	240.923597	0.000000	0.000000	0.000000	
8.401576	2345.137616	2319.806405	-154.862384	-180.193595	23982.358084	32469.731667	237.596485	0.000000	0.000000	0.000000	
8.502038	2347.479615	2322.148404	-152.520385	-177.851596	23262.467850	31631.190077	234.293956	0.000000	0.000000	0.000000	
8.598562	2349.782708	2324.451497	-150.217292	-175.548503	22565.234830	30817.276791	231.046557	0.000000	0.000000	0.000000	
8.698267	2352.114213	2326.783003	-147.885787	-173.216997	21870.205854	30004.128100	227.759377	1.000000	0.000000	0.000000	
8.801572	2354.469236	2329.138026	-145.530764	-170.861974	21179.203138	29193.814217	224.439340	1.000000	0.000000	0.000000	
8.898251	2353.809773	2331.446149	-146.190227	-168.553851	21371.582530	28410.400808	223.118765	1.000000	0.000000	0.000000	
9.001550	2353.136028	2333.804255	-146.863972	-166.195745	21569.026268	27621.025529	221.788304	1.000000	0.000000	0.000000	
9.101683	2352.469071	2336.138605	-147.530929	-163.861395	21765.375031	26850.556719	220.490208	1.000000	0.000000	0.000000	
9.198293	2351.809654	2338.446563	-148.190346	-161.553437	21960.378552	26099.512909	219.225663	1.000000	0.000000	0.000000	
9.298085	2351.143754	2337.780663	-148.856246	-162.219337	22158.182069	26315.113407	220.166518	1.000000	0.000000	0.000000	
9.401898	2350.468456	2337.105365	-149.531544	-162.894635	22359.682556	26534.662014	221.120656	1.000000	0.000000	0.000000	
9.498314	2349.809536	2336.446445	-150.190464	-163.553555	22557.175523	26749.765409	222.051663	0.000000	0.000000	0.000000	
9.601860	2349.135090	2335.771999	-150.864910	-164.228001	22760.221183	26970.836442	223.004613	0.000000	0.000000	0.000000	
9.701705	2348.469236	2335.106145	-151.530764	-164.893855	22961.572430	27189.983413	223.945431	0.000000	0.000000	0.000000	
9.798262	2347.809708	2334.446617	-152.190292	-165.553383	23161.884914	27407.922559	224.877316	0.000000	0.000000	0.000000	
9.901662	2347.135651	2333.772560	-152.864349	-166.227440	23367.509133	27631.561747	225.829739	0.000000	0.000000	0.000000	
10.007463	2346.469545	2333.106454	-153.530455	-166.893546	23571.600533	27853.455616	226.770933	0.000000	0.000000	0.000000	
10.099304	2345.809722	2332.446631	-154.190278	-167.553369	23774.641729	28074.131360	227.703257	0.000000	0.000000	0.000000	
10.201640	2345.135019	2331.771928	-154.864981	-168.228072	23983.162191	28300.684053	228.656612	0.000000	0.000000	0.000000	
10.301218	2344.470594	2331.107503	-155.529406	-168.892497	24189.395999	28524.675406	229.595452	0.000000	0.000000	0.000000	
10.398132	2343.809980	2330.446889	-156.190020	-169.553111	24395.322275	28748.257377	230.528913	0.000000	0.000000	0.000000	
10.501786	2343.135179	2329.772088	-156.864821	-170.227912	24606.572062	28977.542025	231.482427	0.000000	0.000000	0.000000	
10.601272	2342.470194	2329.107103	-157.529806	-170.892897	24815.639884	29204.382366	232.422078	0.000000	0.000000	0.000000	
10.698391	2341.809135	2328.446044	-158.190865	-171.553956	25024.349878	29430.759943	233.356187	0.000000	0.000000	0.000000	
10.801786	2341.135103	2327.772012	-158.864897	-172.227988	25238.055400	29662.479750	234.308632	0.000000	0.000000	0.000000	
10.901710	2340.469596	2327.106505	-159.530404	-172.893495	25449.949750	29892.160565	235.249039	0.000000	0.000000	0.000000	
10.998703	2339.808610	2326.445519	-160.191390	-173.554481	25661.281474	30121.157930	236.183063	0.000000	0.000000	0.000000	
11.098308	2339.142812	2325.779721	-160.857188	-174.220279	25875.034974	30352.705668	237.123893	0.000000	0.000000	0.000000	
11.201746	2338.469084	2325.105993	-161.530916	-174.894007	26092.236762	30587.913624	238.075934	0.000000	0.000000	0.000000	
11.298507	2337.808534	2324.445443	-162.191466	-175.554557	26306.071592	30819.402435	239.009360	0.000000	0.000000	0.000000	
11.398640	2337.141949	2323.778858	-162.858051	-176.221142	26522.744716	31053.890830	239.951319	0.000000	0.000000	0.000000	
11.501597	2336.469445	2323.106354	-163.530555	-176.893646	26742.242501	31291.362090	240.901649	0.000000	0.000000	0.000000	
11.598540	2335.809057	2322.445966	-164.190943	-177.554034	26958.665684	31525.434910	241.834862	0.000000	0.000000	0.000000	
11.699128	2335.144196	2321.781105	-164.855804	-178.218895	27177.436137	31761.974568	242.774403	0.000000	0.000000	0.000000	
11.801590	2334.468616	2321.105525	-165.531384	-178.894475	27400.638996	32003.233091	243.729096	0.000000	0.000000	0.000000	
11.898011	2333.810444	2320.447353	-166.189556	-179.552647	27618.968425	32239.152945	244.659194	0.000000	0.000000	0.000000	
12.001777	2333.135348	2319.772257	-166.864652	-180.227743	27843.812101	32482.039368	245.613215	0.000000	0.000000	0.000000	
12.104155	2332.469392	2319.106301	-167.530608	-180.893699	28066.504713	32722.530448	246.554325	0.000000	0.000000	0.000000	
12.198096	2331.810018	2318.446927	-168.189982	-181.553073	28287.870088	32961.518369	247.486138	0.000000	0.000000	0.000000	
12.302134	2331.133972	2317.770881	-168.866028	-182.229119	28515.735403	33207.451808	248.441517	0.000000	0.000000	0.000000	
12.401876	2330.468555	2317.105464	-169.531445	-182.894536	28740.910948	33450.411418	249.381881	0.000000	0.000000	0.000000	
12.498470	2329.808668	2316.445577	-170.191332	-183.554423	28965.089623	33692.226356	250.314434	0.000000	0.000000	0.000000	
12.598172	2329.143216	2315.780125	-170.856784	-184.219875	29192.040622	33936.962333	251.254857	0.000000	0.000000	0.000000	
12.701732	2328.468689	2315.105598	-171.531311	-184.894402	29422.990803	34185.940059	252.208110	0.000000	0.000000	0.000000	
12.798174	2327.809909	2314.446818	-172.190091	-185.553182	29649.427358	34429.983270	253.139113	0.000000	0.000000	0.000000	
12.901640	2327.135403	2313.772312	-172.864597	-186.227688	29882.168850	34680.751735	254.092347	0.000000	0.000000	0.000000	
13.001765	2326.468917	2313.105826	-173.531083	-186.894174	30113.036930	34929.432457	255.034251	0.000000	0.000000	0.000000	
13.098606	2325.808281	2312.445190	-174.191719	-187.554810	30342.754984	35176.806778	255.967892	0.000000	0.000000	0.000000	
13.201510	2325.135537	2311.772446	-174.864463	-188.227554	30577.580418	35429.612089	256.918650	0.000000	0.000000	0.000000	
13.298262	2324.475376	2311.112285	-175.524624	-188.887715	30808.893566	35678.568815	257.851629	0.000000	0.000000	0.000000	
13.401707	2323.802671	2310.439580	-176.197329	-189.560420	31045.498843	35933.152941	258.802341	0.000000	0.000000	0.000000	
13.498276	2323.142553	2309.779462	-176.857447	-190.220538	31278.556674	36183.853207	259.735269	0.000000	0.000000	0.000000	
13.601716	2322.468710	2309.105619	-177.531290	-190.894381	31517.359099	36440.664887	260.687598	0.000000	0.000000	0.000000	
13.718795	2321.672683	2308.309592	-178.327317	-191.690408	31800.631835	36745.212362	261.812613	0.000000	0.000000	0.000000	
13.798338	2321.143580	2307.780489	-178.856420	-192.219511	31989.618812	36948.340241	262.560391	0.000000	0.000000	0.000000	
13.901576	2320.469635	2307.106544	-179.530365	-192.893456	32231.152082	37207.885509	263.512879	0.000000	0.000000	0.000000	
13.998543	2319.809251	2306.446160	-180.190749	-193.553840	32468.705873	37463.088823	264.446204	0.000000	0.000000	0.000000	
14.099109	2319.143376	2305.780285	-180.856624	-194.219715	32709.118286	37721.297531	265.387294	0.000000	0.000000	0.000000	
14.201719	2318.468742	2305.105651	-181.531258	-194.894349	32953.597621	37983.807269	266.340768	0.000000	0.000000	0.000000	
14.298375	2317.809321	2304.446230	-182.190679	-195.553770	33193.443464	38241.276915	267.272745	0.000000	0.000000	0.000000	
14.401519	2317.135388	2303.772297	-182.864612	-196.227703	33439.466262	38505.311367	268.225237	0.000000	0.000000	0.000000	
14.501564	2316.469654	2303.106563	-183.530346	-196.893437	33683.387783	38767.025413	269.166144	0.000000	0.000000	0.000000	
14.598543	2315.809215	2302.446124	-184.190785	-197.553876	33926.245097	39027.533735	270.099572	0.000000	0.000000	0.000000	
14.701355	2315.136377	2301.773286	-184.863623	-198.226714	34174.558943	39293.829972	271.050528	0.000000	0.000000	0.000000	
14.802108	2314.468129	2301.105038	-185.531871	-198.894962	34422.075270	39559.206037	271.995002	0.000000	0.000000	0.000000	
14.898046	2313.810500	2300.447409	-186.189500	-199.552591	34666.529949	39821.236623	272.924470	0.000000	0.000000	0.000000	
15.001112	2313.149372	2299.786281	-186.850628	-200.213719	34913.157013	40085.533100	273.858887	0.000000	0.000000	0.000000	
15.101082	2312.475251	2299.112160	-187.524749	-200.887840	35165.531377	40355.924149	274.811673	0.000000	0.000000	0.000000	
15.197522	2311.815681	2298.452590	-188.184319	-201.547410	35413.338028	40621.358603	275.743897	0.000000	0.000000	0.000000	
15.300890	2311.141799	2297.778708	-188.858201	-202.221292	35667.420063	40893.450922	276.696352	0.000000	0.000000	0.000000	
15.400646	2310.476279	2297.113188	-189.523721	-202.886812	35919.240794	41163.058462	277.636992	0.000000	0.000000	0.000000	
15.497066	2309.816939	2296.453848	-190.183061	-203.546152	36169.596521	41431.035819	278.568901	0.000000	0.000000	0.000000	
15.600780	2309.142164	2295.779073	-190.857836	-204.220927	36426.713604	41706.187076	279.522630	0.000000	0.000000	0.000000	
15.700491	2308.476340	2295.113249	-191.523660	-204.886751	36681.312250	41978.580647	280.463710	0.000000	0.000000	0.000000	
15.800499	2307.809653	2294.446562	-192.190347	-205.553438	36937.129630	42252.216041	281.406016	0.000000	0.000000	0.000000	
