AF-MATB V. 3.03
Programmed using MATLAB 7.5.0 and other Custom MATLAB Functions.

William Daniel Miller, Jr.
Air Force Research Laboratory
711th Human Performance Wing
Human Effectiveness Directorate
Applied Neuroscience Branch

RMS Center Coordinate (X,Y) is:	599.500000	565.500000	
Tracking Box X-Axis Lower Limit is:	449.500000	
Tracking Box X-Axis Upper Limit is:	749.500000	
Tracking Box Y-Axis Lower Limit is:	417.500000	
Tracking Box Y-Axis Upper Limit is:	717.500000	


Event Time	X Coordinates	Y Coordinates	X-Axis Difference	Y-Axis Difference	X-Axis Deviation	Y-Axis Deviation	Euclidian Distance From Target	X-Axis In Range?	y-Axis In Range?	Both In Range?
0.103558	596.564941	567.201874	-2.935059	1.701874	8.614574	2.896375	3.392779	1.000000	1.000000	1.000000	
0.111352	593.670441	568.903748	-5.829559	3.403748	33.983757	11.585501	6.750501	1.000000	1.000000	1.000000	
0.198438	590.735382	570.605622	-8.764618	5.105622	76.818534	26.067377	10.143269	1.000000	1.000000	1.000000	
0.298354	587.840882	572.307496	-11.659118	6.807496	135.935027	46.342003	13.501001	1.000000	1.000000	1.000000	
0.402051	584.905823	574.009370	-14.594177	8.509370	212.990008	72.409380	16.893768	1.000000	1.000000	1.000000	
0.498312	581.970763	575.711244	-17.529237	10.211244	307.274136	104.269507	20.286538	1.000000	1.000000	1.000000	
0.598406	579.014904	577.413118	-20.485096	11.913118	419.639160	141.922384	23.697290	1.000000	1.000000	1.000000	
0.702140	575.957125	579.114992	-23.542875	13.614992	554.266987	185.368012	27.196231	1.000000	1.000000	1.000000	
0.798282	572.879585	580.816866	-26.620415	15.316866	708.646491	234.606390	30.712422	1.000000	1.000000	1.000000	
0.901834	569.862366	582.518740	-29.637634	17.018740	878.389371	289.637518	34.176408	1.000000	1.000000	1.000000	
1.001648	566.784826	584.220614	-32.715174	18.720614	1070.282597	350.461397	37.692758	1.000000	1.000000	1.000000	
1.098191	563.767607	585.922488	-35.732393	20.422488	1276.803927	417.078026	41.156797	1.000000	1.000000	1.000000	
1.198355	560.750387	587.624362	-38.749613	22.124362	1501.532483	489.487406	44.620846	1.000000	1.000000	1.000000	
1.298182	557.794528	589.326236	-41.705472	23.826236	1739.346404	567.689536	48.031614	1.000000	1.000000	1.000000	
1.401717	554.900028	591.028110	-44.599972	25.528110	1989.157462	651.684416	51.389122	1.000000	1.000000	1.000000	
1.498233	552.005529	592.729984	-47.494471	27.229984	2255.724774	741.472047	54.746660	1.000000	1.000000	1.000000	
1.601776	549.070470	594.431858	-50.429530	28.931858	2543.137539	837.052428	58.139401	1.000000	1.000000	1.000000	
1.698296	546.175970	596.133732	-53.324030	30.633732	2843.452161	938.425559	61.496973	1.000000	1.000000	1.000000	
1.801965	543.281471	597.835606	-56.218529	32.335606	3160.523036	1045.591441	64.854564	1.000000	1.000000	1.000000	
1.901956	541.361451	599.537480	-58.138549	34.037480	3380.090849	1158.550073	67.369436	1.000000	1.000000	1.000000	
1.998267	539.441432	601.197754	-60.058568	35.697754	3607.031611	1274.329672	69.866739	1.000000	1.000000	1.000000	
2.115540	537.561972	602.898588	-61.938028	37.398588	3836.319264	1398.654419	72.353118	1.000000	1.000000	1.000000	
2.198374	535.622193	604.599422	-63.877807	39.099422	4080.374233	1528.764839	74.894186	1.000000	1.000000	1.000000	
2.302109	533.742734	606.300257	-65.757266	40.800257	4324.018095	1664.660931	77.386556	1.000000	1.000000	1.000000	
2.398731	531.822714	607.940771	-67.677286	42.440771	4580.215029	1801.219003	79.883878	1.000000	1.000000	1.000000	
2.501992	529.902695	609.641605	-69.597305	44.141605	4843.784913	1948.481252	82.415206	1.000000	1.000000	1.000000	
2.598296	528.044035	611.301879	-71.455965	45.801879	5105.954904	2097.812080	84.875008	1.000000	1.000000	1.000000	
2.698310	526.185376	612.962153	-73.314624	47.462153	5375.034126	2252.655928	87.336648	1.000000	1.000000	1.000000	
2.801815	524.550316	614.622427	-74.949684	49.122427	5617.455081	2413.012796	89.612878	1.000000	1.000000	1.000000	
2.898580	522.915257	616.323261	-76.584743	50.823261	5865.222876	2583.003821	91.914236	1.000000	1.000000	1.000000	
3.002060	521.280197	617.983535	-78.219803	52.483535	6118.337509	2754.521410	94.195854	1.000000	1.000000	1.000000	
3.101905	519.645138	619.624049	-79.854862	54.124049	6376.798981	2929.412645	96.468708	1.000000	1.000000	1.000000	
3.198223	518.010079	621.162643	-81.489921	55.662643	6640.607292	3098.329792	98.686053	1.000000	1.000000	1.000000	
3.298672	516.395819	622.701237	-83.104181	57.201237	6906.304875	3271.981482	100.887494	1.000000	1.000000	1.000000	
3.402441	515.087320	624.157671	-84.412680	58.657671	7125.500593	3440.722336	102.792135	1.000000	1.000000	1.000000	
3.498635	515.206740	625.410265	-84.293260	59.910265	7105.353635	3589.239823	103.414668	1.000000	1.000000	1.000000	
3.602229	515.366721	626.662859	-84.133279	61.162859	7078.408662	3740.895294	104.015883	1.000000	1.000000	1.000000	
3.701942	515.787691	624.503252	-83.712309	59.003252	7007.750703	3481.383801	102.416476	1.000000	1.000000	1.000000	
3.798248	516.208661	622.303086	-83.291339	56.803086	6937.447176	3226.590595	100.816853	1.000000	1.000000	1.000000	
3.901807	516.589071	620.102920	-82.910929	54.602920	6874.222169	2981.478854	99.275883	1.000000	1.000000	1.000000	
4.001801	517.010041	617.902754	-82.489959	52.402754	6804.593356	2746.048575	97.727386	1.000000	1.000000	1.000000	
4.099245	517.390451	615.702587	-82.109549	50.202587	6741.978055	2520.299761	96.240728	1.000000	1.000000	1.000000	
4.201820	517.811421	613.502421	-81.688579	48.002421	6673.023956	2304.232410	94.748385	1.000000	1.000000	1.000000	
4.302467	518.089911	611.342815	-81.410089	45.842815	6627.602606	2101.563647	93.430007	1.000000	1.000000	1.000000	
4.398393	518.470321	609.142648	-81.029679	43.642648	6565.808892	1904.680746	92.035263	1.000000	1.000000	1.000000	
4.498322	518.850731	606.983042	-80.649269	41.483042	6504.304602	1720.842767	90.692598	1.000000	1.000000	1.000000	
4.610630	519.231141	604.782876	-80.268859	39.282876	6443.089736	1543.144316	89.365732	1.000000	1.000000	1.000000	
4.698496	519.652111	602.623269	-79.847889	37.123269	6375.685387	1378.137123	88.055792	1.000000	1.000000	1.000000	
4.802129	520.032521	600.463663	-79.467479	34.963663	6315.080226	1222.457729	86.818995	1.000000	1.000000	1.000000	
4.901823	520.311011	598.304057	-79.188989	32.804057	6270.895985	1076.106133	85.714655	1.000000	1.000000	1.000000	
4.998408	520.650861	596.144450	-78.849139	30.644450	6217.186725	939.082337	84.594734	1.000000	1.000000	1.000000	
5.098452	520.990711	593.984844	-78.509289	28.484844	6163.708462	811.386339	83.517033	1.000000	1.000000	1.000000	
5.201812	521.371121	591.825238	-78.128879	26.325238	6104.121735	693.018140	82.444769	1.000000	1.000000	1.000000	
5.298415	522.016731	589.665631	-77.483269	24.165631	6003.656975	583.977740	81.164245	1.000000	1.000000	1.000000	
5.402184	522.885941	587.547625	-76.614059	22.047625	5869.714035	486.097771	79.723345	1.000000	1.000000	1.000000	
5.501904	523.939231	585.347459	-75.560769	19.847459	5709.429809	393.921619	78.123949	1.000000	1.000000	1.000000	
5.598275	524.992521	583.187852	-74.507479	17.687852	5551.364423	312.860124	76.578225	1.000000	1.000000	1.000000	
5.702037	526.086371	580.967926	-73.413629	15.467926	5389.560917	239.256738	75.025447	1.000000	1.000000	1.000000	
5.801769	527.241581	578.748000	-72.258419	13.248000	5221.279110	175.509499	73.462838	1.000000	1.000000	1.000000	
5.898192	528.335431	576.588393	-71.164569	11.088393	5064.395873	122.952470	72.023249	1.000000	1.000000	1.000000	
6.001901	529.429281	574.388227	-70.070719	8.888227	4909.905652	79.000582	70.632190	1.000000	1.000000	1.000000	
6.104221	530.625051	572.188061	-68.874949	6.688061	4743.758589	44.730158	69.198907	1.000000	1.000000	1.000000	
6.198786	531.780261	570.191735	-67.719739	4.691735	4585.963039	22.012373	67.882070	1.000000	1.000000	1.000000	
6.298295	532.976031	568.542768	-66.523969	3.042768	4425.438439	9.258438	66.593520	1.000000	1.000000	1.000000	
6.401951	534.069881	567.076842	-65.430119	1.576842	4281.100459	2.486430	65.449117	1.000000	1.000000	1.000000	
6.498266	535.163731	565.610916	-64.336269	0.110916	4139.155494	0.012302	64.336364	1.000000	1.000000	1.000000	
6.601972	536.318941	564.104429	-63.181059	-1.395571	3991.846201	1.947618	63.196470	1.000000	1.000000	1.000000	
6.701762	537.514711	562.557383	-61.985289	-2.942617	3842.176036	8.658995	62.055097	1.000000	1.000000	1.000000	
6.801856	538.608561	561.050897	-60.891439	-4.449103	3707.767326	19.794521	61.053762	1.000000	1.000000	1.000000	
6.898267	539.702411	559.544410	-59.797589	-5.955590	3575.751632	35.469048	60.093433	1.000000	1.000000	1.000000	
7.002603	540.796261	558.322884	-58.703739	-7.177116	3446.128954	51.510994	59.140848	1.000000	1.000000	1.000000	
7.098435	541.890111	557.182478	-57.609889	-8.317522	3318.899291	69.181178	58.207220	1.000000	1.000000	1.000000	
7.201936	542.943401	556.082631	-56.556599	-9.417369	3198.648870	88.686832	57.335292	1.000000	1.000000	1.000000	
7.298234	543.996691	554.942225	-55.503309	-10.557775	3080.617289	111.466612	56.498530	1.000000	1.000000	1.000000	
7.398334	545.090541	553.801819	-54.409459	-11.698181	2960.389207	136.847445	55.652823	1.000000	1.000000	1.000000	
7.501962	546.286311	552.701972	-53.213689	-12.798028	2831.696675	163.789510	54.731035	1.000000	1.000000	1.000000	
7.601798	547.339601	551.561566	-52.160399	-13.938434	2720.707201	194.279940	53.990621	1.000000	1.000000	1.000000	
7.698176	548.494811	550.421160	-51.005189	-15.078840	2601.529282	227.371422	53.187411	1.000000	1.000000	1.000000	
7.801732	549.650021	549.280753	-49.849979	-16.219247	2485.020383	263.063958	52.422174	1.000000	1.000000	1.000000	
7.898675	550.845791	548.140347	-48.654209	-17.359653	2367.232030	301.357547	51.658393	1.000000	1.000000	1.000000	
8.001870	551.939641	546.999941	-47.560359	-18.500059	2261.987724	342.252189	51.031754	1.000000	1.000000	1.000000	
8.099089	553.094851	545.859535	-46.405149	-19.640465	2153.437829	385.747885	50.390334	1.000000	1.000000	1.000000	
8.201601	554.250061	544.678568	-45.249939	-20.821432	2047.556955	433.532022	49.810531	1.000000	1.000000	1.000000	
8.298253	555.405271	543.497602	-44.094729	-22.002398	1944.345101	484.105523	49.279312	1.000000	1.000000	1.000000	
8.401747	556.499121	542.316636	-43.000879	-23.183364	1849.075570	537.468387	48.852267	1.000000	1.000000	1.000000	
8.502182	557.592971	541.135669	-41.907029	-24.364331	1756.199055	593.620613	48.474939	1.000000	1.000000	1.000000	
8.598696	558.686821	539.995263	-40.813179	-25.504737	1665.715555	650.491613	48.126990	1.000000	1.000000	1.000000	
8.698331	559.780671	538.854857	-39.719329	-26.645143	1577.625071	709.963666	47.828744	1.000000	1.000000	1.000000	
8.801730	560.874521	537.673890	-38.625479	-27.826110	1491.927603	774.292382	47.604832	1.000000	1.000000	1.000000	
8.898319	561.968371	536.533484	-37.531629	-28.966516	1408.623150	839.059051	47.409727	1.000000	1.000000	1.000000	
9.001728	563.062221	535.393078	-36.437779	-30.106922	1327.711713	906.426773	47.266674	1.000000	1.000000	1.000000	
9.101842	564.156071	534.252671	-35.343929	-31.247329	1249.193292	976.395548	47.176147	1.000000	1.000000	1.000000	
9.198356	565.249921	533.071705	-34.250079	-32.428295	1173.067887	1051.594315	47.166325	1.000000	1.000000	1.000000	
9.298148	570.366197	531.274413	-29.133803	-34.225587	848.778451	1171.390812	44.946293	1.000000	1.000000	1.000000	
9.402055	575.441914	529.396001	-24.058086	-36.103999	578.791525	1303.498760	43.385369	1.000000	1.000000	1.000000	
9.498374	580.558190	527.558149	-18.941810	-37.941851	358.792181	1439.584083	42.407267	1.000000	1.000000	1.000000	
9.602008	585.735826	525.720297	-13.764174	-39.779703	189.452495	1582.424808	42.093673	1.000000	1.000000	1.000000	
9.701856	590.852102	523.882444	-8.647898	-41.617556	74.786144	1732.020933	42.506553	1.000000	1.000000	1.000000	
9.798328	595.968378	522.004032	-3.531622	-43.495968	12.472355	1891.899207	43.639106	1.000000	1.000000	1.000000	
9.901833	601.146014	520.166180	1.646014	-45.333820	2.709362	2055.155220	45.363692	1.000000	1.000000	1.000000	
10.007609	606.181170	518.328328	6.681170	-47.171672	44.638032	2225.166635	47.642467	1.000000	1.000000	1.000000	
10.099367	611.399366	516.449916	11.899366	-49.050084	141.594913	2405.910748	50.472821	1.000000	1.000000	1.000000	
10.201805	616.515642	514.612064	17.015642	-50.887936	289.532077	2589.582050	53.657377	1.000000	1.000000	1.000000	
10.301366	621.631918	512.774212	22.131918	-52.725788	489.821804	2780.008754	57.182432	1.000000	1.000000	1.000000	
10.398194	626.748194	510.976920	27.248194	-54.523080	742.464092	2972.766301	60.952690	1.000000	1.000000	1.000000	
10.502022	631.925830	509.139067	32.425830	-56.360933	1051.434475	3176.554719	65.022990	1.000000	1.000000	1.000000	
10.601419	637.001546	507.301215	37.501546	-58.198785	1406.365986	3387.098539	69.234851	1.000000	1.000000	1.000000	
10.698458	642.117823	505.463363	42.617823	-60.036637	1816.278796	3604.397759	73.625244	1.000000	1.000000	1.000000	
10.801936	647.234099	503.625511	47.734099	-61.874489	2278.544169	3828.452380	78.147275	1.000000	1.000000	1.000000	
10.901862	652.309815	501.787659	52.809815	-63.712341	2788.876526	4059.262402	82.753483	1.000000	1.000000	1.000000	
10.998771	657.487451	499.949807	57.987451	-65.550193	3362.544445	4296.827825	87.517840	1.000000	1.000000	1.000000	
11.098370	662.563167	498.152515	63.063167	-67.347485	3976.963010	4535.683775	92.264006	1.000000	1.000000	1.000000	
11.201895	667.556723	496.355223	68.056723	-69.144777	4631.717533	4781.000244	97.019162	1.000000	1.000000	1.000000	
11.298601	670.675159	494.517370	71.175159	-70.982630	5065.903256	5038.533696	100.520828	1.000000	1.000000	1.000000	
11.398713	673.751995	492.720078	74.251995	-72.779922	5513.358770	5296.916997	103.972476	1.000000	1.000000	1.000000	
11.501748	676.462751	491.085026	76.962751	-74.414974	5923.265062	5537.588323	107.055375	1.000000	1.000000	1.000000	
11.598632	677.469122	495.236167	77.969122	-70.263833	6079.184003	4937.006231	104.958040	1.000000	1.000000	1.000000	
11.699191	678.475493	499.550588	78.975493	-65.949412	6237.128508	4349.324978	102.890493	1.000000	1.000000	1.000000	
11.801741	679.481864	504.027248	79.981864	-61.472752	6397.098579	3778.899178	100.876151	1.000000	1.000000	1.000000	
11.898072	680.488235	508.625589	80.988235	-56.874411	6559.094215	3234.698598	98.963593	1.000000	1.000000	1.000000	
12.001929	681.494606	513.264490	81.994606	-52.235510	6723.115416	2728.548504	97.219668	1.000000	1.000000	1.000000	
12.104308	682.500977	517.943951	83.000977	-47.556049	6889.162181	2261.577819	95.659500	1.000000	1.000000	1.000000	
12.198158	683.507348	522.582852	84.007348	-42.917148	7057.234512	1841.881633	94.335127	1.000000	1.000000	1.000000	
12.302286	684.513719	527.221752	85.013719	-38.278248	7227.332408	1465.224248	93.233881	1.000000	1.000000	1.000000	
12.402028	685.520090	531.860653	86.020090	-33.639347	7399.455870	1131.605664	92.363746	1.000000	1.000000	1.000000	
12.498555	686.526461	536.540114	87.026461	-28.959886	7573.604896	838.675009	91.718482	1.000000	1.000000	1.000000	
12.598236	687.532832	541.179015	88.032832	-24.320985	7749.779487	591.510333	91.330662	1.000000	1.000000	1.000000	
12.701885	688.539203	545.817915	89.039203	-19.682085	7927.979643	387.384458	91.188618	1.000000	1.000000	1.000000	
12.798237	689.545574	550.456816	90.045574	-15.043184	8108.205365	226.297383	91.293498	1.000000	1.000000	1.000000	
12.901753	690.551945	555.136277	91.051945	-10.363723	8290.456651	107.406758	91.639857	1.000000	1.000000	1.000000	
13.001919	691.558316	559.775178	92.058316	-5.724822	8474.733503	32.773592	92.236149	1.000000	1.000000	1.000000	
13.098681	692.564687	564.414078	93.064687	-1.085922	8661.035920	1.179226	93.071022	1.000000	1.000000	1.000000	
13.201636	693.571058	568.321859	94.071058	2.821859	8849.363902	7.962889	94.113372	1.000000	1.000000	1.000000	
13.298326	694.577429	571.944680	95.077429	6.444680	9039.717448	41.533899	95.295600	1.000000	1.000000	1.000000	
13.401861	695.583800	575.262781	96.083800	9.762781	9232.096560	95.311885	96.578509	1.000000	1.000000	1.000000	
13.498340	696.426891	578.580881	96.926891	13.080881	9394.822132	171.109458	97.805581	1.000000	1.000000	1.000000	
13.601872	696.884142	581.286422	97.384142	15.786422	9483.671041	249.211124	98.655371	1.000000	1.000000	1.000000	
13.718860	696.772513	583.624843	97.272513	18.124843	9461.941708	328.509930	98.946711	1.000000	1.000000	1.000000	
13.798403	696.701444	585.922704	97.201444	20.422704	9448.120634	417.086824	99.323751	1.000000	1.000000	1.000000	
13.901732	696.589815	588.261124	97.089815	22.761124	9426.432091	518.068784	99.722118	1.000000	1.000000	1.000000	
13.998621	696.518746	590.558985	97.018746	25.058985	9412.636985	627.952738	100.202743	1.000000	1.000000	1.000000	
14.099173	696.447677	592.897406	96.947677	27.397406	9398.851980	750.617851	100.744577	1.000000	1.000000	1.000000	
14.201872	696.336047	595.235827	96.836047	29.735827	9377.220092	884.219388	101.298763	1.000000	1.000000	1.000000	
14.298440	694.243599	597.231309	94.743599	31.731309	8976.349622	1006.875978	99.916093	1.000000	1.000000	1.000000	
14.401699	692.191711	599.186232	92.691711	33.686232	8591.753336	1134.762195	98.623098	1.000000	1.000000	1.000000	
14.501720	690.139823	601.181714	90.639823	35.681714	8215.577540	1273.184711	97.410278	1.000000	1.000000	1.000000	
14.598634	688.087935	603.075276	88.587935	37.575276	7847.822234	1411.901396	96.227458	1.000000	1.000000	1.000000	
14.701462	686.036047	604.826359	86.536047	39.326359	7488.487417	1546.562497	95.052880	1.000000	1.000000	1.000000	
14.802265	683.984159	606.557681	84.484159	41.057681	7137.573090	1685.733189	93.932456	1.000000	1.000000	1.000000	
14.898111	681.891711	608.308764	82.391711	42.808764	6788.393992	1832.590247	92.849255	1.000000	1.000000	1.000000	
15.001173	679.839823	610.040086	80.339823	44.540086	6454.487094	1983.819269	91.860255	1.000000	1.000000	1.000000	
15.101422	677.747374	611.791169	78.247374	46.291169	6122.651613	2142.872283	90.914927	1.000000	1.000000	1.000000	
15.197636	675.716286	613.522491	76.216286	48.022491	5808.922307	2306.159636	90.083750	1.000000	1.000000	1.000000	
15.301047	673.664398	615.314133	74.164398	49.814133	5500.357968	2481.447883	89.340953	1.000000	1.000000	1.000000	
15.400804	671.612510	617.065216	72.112510	51.565216	5200.214119	2658.971480	88.652048	1.000000	1.000000	1.000000	
15.497131	669.581422	618.816298	70.081422	53.316298	4911.405714	2842.627656	88.056989	1.000000	1.000000	1.000000	
15.600940	667.529534	620.567381	68.029534	55.067381	4628.017485	3032.416411	87.523905	1.000000	1.000000	1.000000	
15.700653	665.477646	622.298703	65.977646	56.798703	4353.049746	3226.092671	87.058270	1.000000	1.000000	1.000000	
15.800660	663.425758	624.030026	63.925758	58.530026	4086.502497	3425.763885	86.673331	1.000000	1.000000	1.000000	
15.897009	661.333310	625.781108	61.833310	60.281108	3823.358174	3633.811973	86.354908	1.000000	1.000000	1.000000	
16.000851	659.281421	627.512430	59.781421	62.012430	3573.818353	3845.541518	86.135706	1.000000	1.000000	1.000000	
16.098263	657.229533	629.304073	57.729533	63.804073	3332.699022	4070.959703	86.044516	1.000000	1.000000	1.000000	
16.197205	655.137085	631.055155	55.637085	65.555155	3095.485255	4297.478374	85.982345	1.000000	1.000000	1.000000	
16.300705	653.085197	632.806238	53.585197	67.306238	2871.373352	4530.129624	86.031988	1.000000	1.000000	1.000000	
16.401171	651.033309	634.557320	51.533309	69.057320	2655.681939	4768.913454	86.166092	1.000000	1.000000	1.000000	
16.497110	648.981421	636.308402	49.481421	70.808402	2448.411015	5013.829862	86.384263	1.000000	1.000000	1.000000	
16.600777	646.888973	638.059485	47.388973	72.559485	2245.714743	5264.878850	86.663681	1.000000	1.000000	1.000000	
16.697191	644.837085	639.810567	45.337085	74.310567	2055.451248	5522.060418	87.048904	1.000000	1.000000	1.000000	
