AF-MATB V. 3.03
Programmed using MATLAB 7.5.0 and other Custom MATLAB Functions.

William Daniel Miller, Jr.
Air Force Research Laboratory
711th Human Performance Wing
Human Effectiveness Directorate
Applied Neuroscience Branch

RMS Target Value is:	2500.000000	
Main Tank Automation Lower Limit is:	2350.000000	
Main Tank Automation Upper Limit is:	2650.000000	


Event Time	Tank A Value	Tank B Value	Tank A Difference	Tank B Difference	Tank A Deviation	Tank B Deviation	Euclidian Distance From Target	Tank A In Range?	Tank B In Range?	Both In Range?
0.086528	2499.602340	2499.602340	-0.397660	-0.397660	0.158134	0.158134	0.562376	1.000000	1.000000	1.000000	
0.141495	2495.347857	2495.347857	-4.652143	-4.652143	21.642435	21.642435	6.579124	1.000000	1.000000	1.000000	
0.199536	2493.403973	2493.403973	-6.596027	-6.596027	43.507568	43.507568	9.328190	1.000000	1.000000	1.000000	
0.303174	2490.031165	2490.031165	-9.968835	-9.968835	99.377674	99.377674	14.098062	1.000000	1.000000	1.000000	
0.399963	2486.730104	2486.730104	-13.269896	-13.269896	176.090137	176.090137	18.766467	1.000000	1.000000	1.000000	
0.502938	2483.364973	2483.364973	-16.635027	-16.635027	276.724126	276.724126	23.525481	1.000000	1.000000	1.000000	
0.602821	2480.031984	2480.031984	-19.968016	-19.968016	398.721667	398.721667	28.239039	1.000000	1.000000	1.000000	
0.699009	2476.763664	2476.763664	-23.236336	-23.236336	539.927306	539.927306	32.861141	1.000000	1.000000	1.000000	
0.803123	2473.364381	2473.364381	-26.635619	-26.635619	709.456223	709.456223	37.668454	1.000000	1.000000	1.000000	
0.903126	2470.031477	2470.031477	-29.968523	-29.968523	898.112367	898.112367	42.381892	1.000000	1.000000	1.000000	
0.999838	2466.730352	2466.730352	-33.269648	-33.269648	1106.869466	1106.869466	47.050387	1.000000	1.000000	1.000000	
1.103213	2463.362013	2463.362013	-36.637987	-36.637987	1342.342077	1342.342077	51.813938	1.000000	1.000000	1.000000	
1.202890	2460.034820	2460.034820	-39.965180	-39.965180	1597.215645	1597.215645	56.519300	1.000000	1.000000	1.000000	
1.299458	2456.738613	2456.738613	-43.261387	-43.261387	1871.547577	1871.547577	61.180840	1.000000	1.000000	1.000000	
1.402641	2453.364607	2453.364607	-46.635393	-46.635393	2174.859858	2174.859858	65.952405	1.000000	1.000000	1.000000	
1.502980	2450.036344	2450.036344	-49.963656	-49.963656	2496.366884	2496.366884	70.659279	1.000000	1.000000	1.000000	
1.599543	2446.737401	2446.737401	-53.262599	-53.262599	2836.904476	2836.904476	75.324690	1.000000	1.000000	1.000000	
1.699563	2443.403321	2443.403321	-56.596679	-56.596679	3203.184063	3203.184063	80.039791	1.000000	1.000000	1.000000	
1.803144	2440.032758	2440.032758	-59.967242	-59.967242	3596.070107	3596.070107	84.806487	1.000000	1.000000	1.000000	
1.899749	2436.734477	2436.734477	-63.265523	-63.265523	4002.526349	4002.526349	89.470960	1.000000	1.000000	1.000000	
1.999568	2433.402793	2433.402793	-66.597207	-66.597207	4435.187996	4435.187996	94.182674	1.000000	1.000000	1.000000	
2.116448	2430.033812	2430.033812	-69.966188	-69.966188	4895.267415	4895.267415	98.947131	1.000000	1.000000	1.000000	
2.199535	2426.740899	2426.740899	-73.259101	-73.259101	5366.895818	5366.895818	103.604014	1.000000	1.000000	1.000000	
2.299526	2423.402350	2423.402350	-76.597650	-76.597650	5867.199954	5867.199954	108.325435	1.000000	1.000000	1.000000	
2.403082	2420.030996	2420.030996	-79.969004	-79.969004	6395.041617	6395.041617	113.093250	1.000000	1.000000	1.000000	
2.499414	2416.739537	2416.739537	-83.260463	-83.260463	6932.304670	6932.304670	117.748076	1.000000	1.000000	1.000000	
2.603037	2413.364718	2413.364718	-86.635282	-86.635282	7505.672011	7505.672011	122.520790	1.000000	1.000000	1.000000	
2.701734	2410.070907	2410.070907	-89.929093	-89.929093	8087.241708	8087.241708	127.178942	1.000000	1.000000	1.000000	
2.801764	2406.736336	2406.736336	-93.263664	-93.263664	8698.111062	8698.111062	131.894739	1.000000	1.000000	1.000000	
2.898383	2403.439146	2403.439146	-96.560854	-96.560854	9323.998564	9323.998564	136.557670	1.000000	1.000000	1.000000	
3.002022	2400.063942	2400.063942	-99.936058	-99.936058	9987.215662	9987.215662	141.330928	1.000000	1.000000	1.000000	
3.098399	2396.772355	2396.772355	-103.227645	-103.227645	10655.946672	10655.946672	145.985935	1.000000	1.000000	1.000000	
3.202679	2393.388619	2393.388619	-106.611381	-106.611381	11365.986626	11365.986626	150.771261	1.000000	1.000000	1.000000	
3.299904	2390.092156	2390.092156	-109.907844	-109.907844	12079.734217	12079.734217	155.433164	1.000000	1.000000	1.000000	
3.401272	2386.762824	2386.762824	-113.237176	-113.237176	12822.658106	12822.658106	160.141551	1.000000	1.000000	1.000000	
3.498845	2383.432700	2383.432700	-116.567300	-116.567300	13587.935368	13587.935368	164.851056	1.000000	1.000000	1.000000	
3.601917	2380.069900	2380.069900	-119.930100	-119.930100	14383.228865	14383.228865	169.606774	1.000000	1.000000	1.000000	
3.698383	2376.773929	2376.773929	-123.226071	-123.226071	15184.664559	15184.664559	174.267981	1.000000	1.000000	1.000000	
3.801861	2373.398234	2373.398234	-126.601766	-126.601766	16028.007274	16028.007274	179.041935	1.000000	1.000000	1.000000	
3.902396	2370.066741	2370.066741	-129.933259	-129.933259	16882.651672	16882.651672	183.753376	1.000000	1.000000	1.000000	
3.998542	2366.773187	2366.773187	-133.226813	-133.226813	17749.383705	17749.383705	188.411166	1.000000	1.000000	1.000000	
4.103919	2363.397983	2363.397983	-136.602017	-136.602017	18660.110961	18660.110961	193.184425	1.000000	1.000000	1.000000	
4.201821	2360.072907	2360.072907	-139.927093	-139.927093	19579.591394	19579.591394	197.886793	1.000000	1.000000	1.000000	
4.298418	2356.773386	2356.773386	-143.226614	-143.226614	20513.862994	20513.862994	202.553020	1.000000	1.000000	1.000000	
4.402252	2353.398995	2353.398995	-146.601005	-146.601005	21491.854712	21491.854712	207.325130	1.000000	1.000000	1.000000	
4.501970	2350.067909	2350.067909	-149.932091	-149.932091	22479.631878	22479.631878	212.035996	1.000000	1.000000	1.000000	
4.598756	2346.768538	2346.768538	-153.231462	-153.231462	23479.881002	23479.881002	216.702012	0.000000	0.000000	0.000000	
4.698410	2343.440254	2343.440254	-156.559746	-156.559746	24510.954205	24510.954205	221.408917	0.000000	0.000000	0.000000	
4.802034	2340.066397	2340.066397	-159.933603	-159.933603	25578.757315	25578.757315	226.180270	0.000000	0.000000	0.000000	
4.898446	2336.768651	2336.768651	-163.231349	-163.231349	26644.473244	26644.473244	230.843987	0.000000	0.000000	0.000000	
5.001617	2333.400098	2333.400098	-166.599902	-166.599902	27755.527237	27755.527237	235.607840	0.000000	0.000000	0.000000	
5.101731	2330.070296	2330.070296	-169.929704	-169.929704	28876.104399	28876.104399	240.316892	0.000000	0.000000	0.000000	
5.198513	2326.770048	2326.770048	-173.229952	-173.229952	30008.616401	30008.616401	244.984148	0.000000	0.000000	0.000000	
5.302209	2323.397389	2323.397389	-176.602611	-176.602611	31188.482280	31188.482280	249.753808	0.000000	0.000000	0.000000	
5.401926	2320.067201	2320.067201	-179.932799	-179.932799	32375.812063	32375.812063	254.463404	0.000000	0.000000	0.000000	
5.498486	2316.773732	2316.773732	-183.226268	-183.226268	33571.865170	33571.865170	259.121073	0.000000	0.000000	0.000000	
5.598473	2313.437771	2313.437771	-186.562229	-186.562229	34805.465392	34805.465392	263.838835	0.000000	0.000000	0.000000	
5.701884	2310.070779	2310.070779	-189.929221	-189.929221	36073.108981	36073.108981	268.600480	0.000000	0.000000	0.000000	
5.798494	2306.774338	2306.774338	-193.225662	-193.225662	37336.156641	37336.156641	273.262352	0.000000	0.000000	0.000000	
5.898367	2306.441131	2303.442268	-193.558869	-196.557732	37465.035934	38634.941986	275.862244	0.000000	0.000000	0.000000	
6.001846	2308.800465	2300.071791	-191.199535	-199.928209	36557.262249	39971.288934	276.637942	0.000000	0.000000	0.000000	
6.100105	2311.111911	2296.769725	-188.888089	-203.230275	35678.710195	41302.544797	277.454960	0.000000	0.000000	0.000000	
6.198330	2313.440467	2296.437074	-186.559533	-203.562926	34804.459198	41437.864932	276.120126	0.000000	0.000000	0.000000	
6.302077	2315.803978	2296.099429	-184.196022	-203.900571	33928.174437	41575.442701	274.779215	0.000000	0.000000	0.000000	
6.398341	2318.106323	2298.401774	-181.893677	-201.598226	33085.309834	40641.844779	271.527447	0.000000	0.000000	0.000000	
6.502030	2320.471286	2300.766737	-179.528714	-199.233263	32230.559295	39693.893187	268.187346	0.000000	0.000000	0.000000	
6.601941	2322.799962	2303.095413	-177.200038	-196.904587	31399.853521	38771.416383	264.898603	0.000000	0.000000	0.000000	
6.698410	2325.108773	2305.404224	-174.891227	-194.595776	30586.941188	37867.515875	261.638027	0.000000	0.000000	0.000000	
6.802330	2327.470473	2307.765924	-172.529527	-192.234076	29766.437776	36953.940018	258.302880	0.000000	0.000000	0.000000	
6.901851	2329.800736	2310.096187	-170.199264	-189.903813	28967.789540	36063.458218	255.012250	0.000000	0.000000	0.000000	
6.998399	2332.108739	2312.404190	-167.891261	-187.595810	28187.475575	35192.187935	251.753180	0.000000	0.000000	0.000000	
7.101942	2334.470798	2314.766249	-165.529202	-185.233751	27399.916852	34311.542608	248.417913	0.000000	0.000000	0.000000	
7.201834	2336.803291	2317.098742	-163.196709	-182.901258	26633.165790	33452.870081	245.124531	0.000000	0.000000	0.000000	
7.301830	2339.136578	2319.432029	-160.863422	-180.567971	25877.040523	32604.792082	241.830173	0.000000	0.000000	0.000000	
7.398405	2341.443548	2321.738999	-158.556452	-178.261001	25140.148412	31776.984359	238.573118	0.000000	0.000000	0.000000	
7.501870	2343.803855	2324.099307	-156.196145	-175.900693	24397.235564	30941.053930	235.240918	0.000000	0.000000	0.000000	
7.598397	2346.108071	2326.403522	-153.891929	-173.596478	23682.725754	30135.737058	231.988066	0.000000	0.000000	0.000000	
7.702062	2348.470594	2328.766045	-151.529406	-171.233955	22961.160884	29321.067295	228.653074	0.000000	0.000000	0.000000	
7.801777	2350.800288	2331.095739	-149.199712	-168.904261	22260.554005	28528.649270	225.364601	1.000000	0.000000	0.000000	
7.898365	2353.108456	2333.403907	-146.891544	-166.596093	21577.125726	27754.258184	222.106695	1.000000	0.000000	0.000000	
8.002077	2355.473434	2335.768885	-144.526566	-164.231115	20887.928351	26971.859166	218.768799	1.000000	0.000000	0.000000	
8.104648	2357.802963	2338.098414	-142.197037	-161.901586	20219.997252	26212.123411	215.481138	1.000000	0.000000	0.000000	
8.198388	2360.106745	2340.402196	-139.893255	-159.597804	19570.122831	25471.459036	212.230021	1.000000	0.000000	0.000000	
8.301858	2362.470331	2342.765782	-137.529669	-157.234218	18914.409985	24722.599411	208.894733	1.000000	0.000000	0.000000	
8.402030	2364.802884	2345.098335	-135.197116	-154.901665	18278.260191	23994.525793	205.603468	1.000000	0.000000	0.000000	
8.498400	2367.107818	2347.403269	-132.892182	-152.596731	17660.331984	23285.762206	202.351413	1.000000	0.000000	0.000000	
8.601714	2369.468200	2349.763651	-130.531800	-150.236349	17038.550723	22570.960415	199.021384	1.000000	0.000000	0.000000	
8.702139	2371.803329	2352.098780	-128.196671	-147.901220	16434.386573	21874.770969	195.727253	1.000000	1.000000	1.000000	
8.798816	2374.114864	2354.410316	-125.885136	-145.589684	15847.067352	21196.356204	192.466682	1.000000	1.000000	1.000000	
8.898302	2376.441086	2356.736537	-123.558914	-143.263463	15266.805312	20524.419884	189.185690	1.000000	1.000000	1.000000	
9.001977	2378.805061	2359.100512	-121.194939	-140.899488	14688.213351	19852.665807	185.851767	1.000000	1.000000	1.000000	
9.098625	2381.111177	2361.406629	-118.888823	-138.593371	14134.552138	19208.122609	182.599767	1.000000	1.000000	1.000000	
9.198418	2383.443102	2363.738553	-116.556898	-136.261447	13585.510451	18567.181874	179.311718	1.000000	1.000000	1.000000	
9.301826	2385.802960	2366.098411	-114.197040	-133.901589	13040.963880	17929.635421	175.984656	1.000000	1.000000	1.000000	
9.398373	2388.107700	2368.403151	-111.892300	-131.596849	12519.886813	17317.730644	172.735687	1.000000	1.000000	1.000000	
9.501779	2390.471465	2370.766916	-109.528535	-129.233084	11996.499928	16701.189901	169.403925	1.000000	1.000000	1.000000	
9.601972	2392.800935	2373.096386	-107.199065	-126.903614	11491.639562	16104.527239	166.120940	1.000000	1.000000	1.000000	
9.698851	2395.112426	2375.407877	-104.887574	-124.592123	11001.403205	15523.197106	162.863748	1.000000	1.000000	1.000000	
9.798569	2397.445144	2377.740595	-102.554856	-122.259405	10517.498498	14947.362085	159.577131	1.000000	1.000000	1.000000	
9.901891	2399.801394	2380.096846	-100.198606	-119.903154	10039.760554	14376.766435	156.257886	1.000000	1.000000	1.000000	
9.998383	2402.107002	2382.402453	-97.892998	-117.597547	9583.038989	13829.182944	153.010529	1.000000	1.000000	1.000000	
10.099587	2404.444271	2384.739722	-95.555729	-115.260278	9130.897302	13284.931599	149.719167	1.000000	1.000000	1.000000	
10.201754	2406.796585	2387.092036	-93.203415	-112.907964	8686.876628	12748.208374	146.407257	1.000000	1.000000	1.000000	
10.298361	2409.107552	2389.403003	-90.892448	-110.596997	8261.437151	12231.695771	143.154228	1.000000	1.000000	1.000000	
10.398415	2411.441887	2391.737338	-88.558113	-108.262662	7842.539459	11720.804050	139.869023	1.000000	1.000000	1.000000	
10.502039	2413.802643	2394.098094	-86.197357	-105.901906	7429.984366	11215.213678	136.547420	1.000000	1.000000	1.000000	
10.600693	2416.107083	2396.402534	-83.892917	-103.597466	7038.021492	10732.434893	133.305875	1.000000	1.000000	1.000000	
10.698335	2418.441089	2398.736540	-81.558911	-101.263460	6651.856019	10254.288370	130.023630	1.000000	1.000000	1.000000	
10.801720	2420.798746	2401.094197	-79.201254	-98.905803	6272.838587	9782.357777	126.709101	1.000000	1.000000	1.000000	
10.898373	2423.108935	2403.404386	-76.891065	-96.595614	5912.235886	9330.712627	123.462336	1.000000	1.000000	1.000000	
11.001897	2425.469422	2405.764873	-74.530578	-94.235127	5554.807077	8880.259158	120.146020	1.000000	1.000000	1.000000	
11.101953	2427.800269	2408.095720	-72.199731	-91.904280	5212.801196	8446.396705	116.872571	1.000000	1.000000	1.000000	
11.211335	2430.408235	2410.703686	-69.591765	-89.296314	4843.013723	7973.831626	113.211507	1.000000	1.000000	1.000000	
11.298359	2432.440765	2412.736216	-67.559235	-87.263784	4564.250192	7614.967918	110.359495	1.000000	1.000000	1.000000	
11.401967	2434.803228	2415.098679	-65.196772	-84.901321	4250.619047	7208.234241	107.046034	1.000000	1.000000	1.000000	
11.498347	2437.107160	2417.402611	-62.892840	-82.597389	3955.509382	6822.328723	103.816367	1.000000	1.000000	1.000000	
11.598455	2439.442782	2419.738233	-60.557218	-80.261767	3667.176684	6441.951261	100.544159	1.000000	1.000000	1.000000	
11.702499	2441.803972	2422.099423	-58.196028	-77.900577	3386.777647	6068.499837	97.238251	1.000000	1.000000	1.000000	
11.798396	2444.107634	2424.403085	-55.892366	-75.596915	3123.956569	5714.893524	94.015159	1.000000	1.000000	1.000000	
11.901732	2446.468091	2426.763542	-53.531909	-73.236458	2865.665275	5363.578750	90.715181	1.000000	1.000000	1.000000	
12.001789	2448.800600	2429.096051	-51.199400	-70.903949	2621.378606	5027.370025	87.457125	1.000000	1.000000	1.000000	
12.104465	2451.132210	2431.427661	-48.867790	-68.572339	2388.060912	4702.165673	84.203483	1.000000	1.000000	1.000000	
12.198121	2453.437578	2433.733029	-46.562422	-66.266971	2168.059119	4391.311392	80.989941	1.000000	1.000000	1.000000	
12.301760	2455.801688	2436.097139	-44.198312	-63.902861	1953.490796	4083.575643	77.698561	1.000000	1.000000	1.000000	
12.399503	2458.117026	2438.412477	-41.882974	-61.587523	1754.183504	3793.022961	74.479571	1.000000	1.000000	1.000000	
12.498500	2460.443831	2440.739282	-39.556169	-59.260718	1564.690497	3511.832667	71.249724	1.000000	1.000000	1.000000	
12.602325	2462.806159	2443.101610	-37.193841	-56.898390	1383.381785	3237.426732	67.976529	1.000000	1.000000	1.000000	
12.698299	2465.108160	2445.403611	-34.891840	-54.596389	1217.440533	2980.765729	64.793567	1.000000	1.000000	1.000000	
12.798357	2467.442345	2447.737796	-32.557655	-52.262204	1060.000924	2731.337991	61.573849	1.000000	1.000000	1.000000	
12.901767	2469.800122	2450.095573	-30.199878	-49.904427	912.032630	2490.451817	58.330819	1.000000	1.000000	1.000000	
12.998297	2472.106927	2452.402379	-27.893073	-47.597621	778.023494	2265.533558	55.168443	1.000000	1.000000	1.000000	
13.098368	2474.441622	2454.737073	-25.558378	-45.262927	653.230707	2048.732585	51.980413	1.000000	1.000000	1.000000	
13.201835	2476.799983	2457.095434	-23.200017	-42.904566	538.240798	1840.801788	48.775430	1.000000	1.000000	1.000000	
13.298313	2479.106654	2459.402105	-20.893346	-40.597895	436.531926	1648.189103	45.658745	1.000000	1.000000	1.000000	
13.400908	2481.446213	2461.741664	-18.553787	-38.258336	344.243020	1463.700278	42.519916	1.000000	1.000000	1.000000	
13.501702	2483.798691	2464.094142	-16.201309	-35.905858	262.482416	1289.230634	39.391789	1.000000	1.000000	1.000000	
13.598334	2486.106484	2466.401936	-13.893516	-33.598064	193.029776	1128.829935	36.357389	1.000000	1.000000	1.000000	
13.701859	2488.468378	2468.763830	-11.531622	-31.236170	132.978295	975.698340	33.296796	1.000000	1.000000	1.000000	
13.801885	2490.801186	2471.096638	-9.198814	-28.903362	84.618172	835.404363	30.331873	1.000000	1.000000	1.000000	
13.898567	2493.107797	2473.403248	-6.892203	-26.596752	47.502459	707.387196	27.475255	1.000000	1.000000	1.000000	
14.001724	2495.469437	2475.764888	-4.530563	-24.235112	20.526003	587.340654	24.654952	1.000000	1.000000	1.000000	
14.104339	2497.799865	2478.095316	-2.200135	-21.904684	4.840596	479.815195	22.014899	1.000000	1.000000	1.000000	
14.198978	2500.112014	2480.407465	0.112014	-19.592535	0.012547	383.867414	19.592855	1.000000	1.000000	1.000000	
14.298363	2502.442262	2482.737713	2.442262	-17.262287	5.964645	297.986538	17.434196	1.000000	1.000000	1.000000	
14.401824	2504.801327	2485.096778	4.801327	-14.903222	23.052742	222.106019	15.657546	1.000000	1.000000	1.000000	
14.498686	2507.112144	2487.407596	7.112144	-12.592404	50.582599	158.568649	14.462062	1.000000	1.000000	1.000000	
14.601917	2509.468230	2489.763681	9.468230	-10.236319	89.647385	104.782218	13.943802	1.000000	1.000000	1.000000	
14.701959	2511.802236	2492.097687	11.802236	-7.902313	139.292769	62.446552	14.203497	1.000000	1.000000	1.000000	
14.798774	2514.109356	2494.404807	14.109356	-5.595193	199.073915	31.306188	15.178277	1.000000	1.000000	1.000000	
14.898437	2516.441220	2496.736672	16.441220	-3.263328	270.313728	10.649313	16.761952	1.000000	1.000000	1.000000	
15.001753	2518.798145	2499.093596	18.798145	-0.906404	353.370238	0.821569	18.819984	1.000000	1.000000	1.000000	
15.098363	2521.106686	2501.402138	21.106686	1.402138	445.492214	1.965990	21.153208	1.000000	1.000000	1.000000	
15.202066	2523.468715	2503.764166	23.468715	3.764166	550.780598	14.168949	23.768667	1.000000	1.000000	1.000000	
15.301822	2525.799757	2506.095208	25.799757	6.095208	665.627449	37.151559	26.509979	1.000000	1.000000	1.000000	
15.398509	2528.108089	2508.403540	28.108089	8.403540	790.064676	70.619490	29.337419	1.000000	1.000000	1.000000	
15.498320	2530.441496	2510.736947	30.441496	10.736947	926.684669	115.282031	32.279509	1.000000	1.000000	1.000000	
15.612043	2532.798480	2513.093931	32.798480	13.093931	1075.740280	171.451029	35.315596	1.000000	1.000000	1.000000	
15.698284	2535.106618	2515.402069	35.106618	15.402069	1232.474601	237.223723	38.336645	1.000000	1.000000	1.000000	
15.801772	2537.468452	2517.763903	37.468452	17.763903	1403.884882	315.556249	41.466144	1.000000	1.000000	1.000000	
15.901878	2539.798595	2520.094046	39.798595	20.094046	1583.928173	403.770695	44.583617	1.000000	1.000000	1.000000	
15.998298	2542.106299	2522.401750	42.106299	22.401750	1772.940396	501.838399	47.694641	1.000000	1.000000	1.000000	
16.110517	2544.467384	2524.762836	44.467384	24.762836	1977.348283	613.198029	50.897410	1.000000	1.000000	1.000000	
