AF-MATB V. 3.03
Programmed using MATLAB 7.5.0 and other Custom MATLAB Functions.

William Daniel Miller, Jr.
Air Force Research Laboratory
711th Human Performance Wing
Human Effectiveness Directorate
Applied Neuroscience Branch

RMS Target Value is:	2500.000000	
Main Tank Automation Lower Limit is:	2350.000000	
Main Tank Automation Upper Limit is:	2650.000000	


Event Time	Tank A Value	Tank B Value	Tank A Difference	Tank B Difference	Tank A Deviation	Tank B Deviation	Euclidian Distance From Target	Tank A In Range?	Tank B In Range?	Both In Range?
0.097456	2499.568145	2499.568145	-0.431855	-0.431855	0.186499	0.186499	0.610736	1.000000	1.000000	1.000000	
0.108355	2496.495372	2496.495372	-3.504628	-3.504628	12.282415	12.282415	4.956292	1.000000	1.000000	1.000000	
0.202304	2493.402626	2493.402626	-6.597374	-6.597374	43.525343	43.525343	9.330096	1.000000	1.000000	1.000000	
0.298697	2490.107703	2490.107703	-9.892297	-9.892297	97.857541	97.857541	13.989821	1.000000	1.000000	1.000000	
0.401639	2486.743940	2486.743940	-13.256060	-13.256060	175.723116	175.723116	18.746899	1.000000	1.000000	1.000000	
0.501756	2483.407252	2483.407252	-16.592748	-16.592748	275.319295	275.319295	23.465690	1.000000	1.000000	1.000000	
0.598761	2480.105571	2480.105571	-19.894429	-19.894429	395.788313	395.788313	28.134972	1.000000	1.000000	1.000000	
0.698412	2476.775340	2476.775340	-23.224660	-23.224660	539.384809	539.384809	32.844628	1.000000	1.000000	1.000000	
0.801678	2473.406916	2473.406916	-26.593084	-26.593084	707.192118	707.192118	37.608300	1.000000	1.000000	1.000000	
0.898209	2470.111608	2470.111608	-29.888392	-29.888392	893.315983	893.315983	42.268569	1.000000	1.000000	1.000000	
1.001492	2466.740532	2466.740532	-33.259468	-33.259468	1106.192239	1106.192239	47.035991	1.000000	1.000000	1.000000	
1.107728	2463.407585	2463.407585	-36.592415	-36.592415	1339.004811	1339.004811	51.749489	1.000000	1.000000	1.000000	
1.198465	2460.108235	2460.108235	-39.891765	-39.891765	1591.352881	1591.352881	56.415474	1.000000	1.000000	1.000000	
1.301588	2456.741800	2456.741800	-43.258200	-43.258200	1871.271890	1871.271890	61.176333	1.000000	1.000000	1.000000	
1.401652	2453.411612	2453.411612	-46.588388	-46.588388	2170.477879	2170.477879	65.885930	1.000000	1.000000	1.000000	
1.500500	2450.141410	2450.141410	-49.858590	-49.858590	2485.878948	2485.878948	70.510693	1.000000	1.000000	1.000000	
1.597263	2446.813468	2446.813468	-53.186532	-53.186532	2828.807144	2828.807144	75.217114	1.000000	1.000000	1.000000	
1.701260	2443.435741	2443.435741	-56.564259	-56.564259	3199.515367	3199.515367	79.993942	1.000000	1.000000	1.000000	
1.797395	2440.147127	2440.147127	-59.852873	-59.852873	3582.366432	3582.366432	84.644745	1.000000	1.000000	1.000000	
1.901455	2436.770341	2436.770341	-63.229659	-63.229659	3997.989828	3997.989828	89.420242	1.000000	1.000000	1.000000	
1.997458	2433.478176	2433.478176	-66.521824	-66.521824	4425.153046	4425.153046	94.076065	1.000000	1.000000	1.000000	
2.113931	2430.111655	2430.111655	-69.888345	-69.888345	4884.380775	4884.380775	98.837045	1.000000	1.000000	1.000000	
2.197632	2426.810231	2426.810231	-73.189769	-73.189769	5356.742337	5356.742337	103.505964	1.000000	1.000000	1.000000	
2.300161	2423.448863	2423.448863	-76.551137	-76.551137	5860.076531	5860.076531	108.259656	1.000000	1.000000	1.000000	
2.435354	2418.886453	2418.886453	-81.113547	-81.113547	6579.407491	6579.407491	114.711878	1.000000	1.000000	1.000000	
2.497199	2416.813530	2416.813530	-83.186470	-83.186470	6919.988723	6919.988723	117.643433	1.000000	1.000000	1.000000	
2.600679	2413.441214	2413.441214	-86.558786	-86.558786	7492.423475	7492.423475	122.412609	1.000000	1.000000	1.000000	
2.697365	2410.143061	2410.143061	-89.856939	-89.856939	8074.269408	8074.269408	127.076901	1.000000	1.000000	1.000000	
2.800770	2406.774209	2406.774209	-93.225791	-93.225791	8691.048069	8691.048069	131.841178	1.000000	1.000000	1.000000	
2.900613	2403.446139	2403.446139	-96.553861	-96.553861	9322.648112	9322.648112	136.547780	1.000000	1.000000	1.000000	
2.997166	2400.147516	2400.147516	-99.852484	-99.852484	9970.518561	9970.518561	141.212737	1.000000	1.000000	1.000000	
3.100996	2396.773724	2396.773724	-103.226276	-103.226276	10655.664106	10655.664106	145.984000	1.000000	1.000000	1.000000	
3.199735	2393.474844	2393.474844	-106.525156	-106.525156	11347.608790	11347.608790	150.649320	1.000000	1.000000	1.000000	
3.297142	2390.148506	2390.148506	-109.851494	-109.851494	12067.350704	12067.350704	155.353472	1.000000	1.000000	1.000000	
3.400788	2386.774393	2386.774393	-113.225607	-113.225607	12820.038053	12820.038053	160.125189	1.000000	1.000000	1.000000	
3.500668	2383.443286	2383.443286	-116.556714	-116.556714	13585.467578	13585.467578	164.836086	1.000000	1.000000	1.000000	
3.597212	2380.148769	2380.148769	-119.851231	-119.851231	14364.317530	14364.317530	169.495236	1.000000	1.000000	1.000000	
3.700982	2376.773950	2376.773950	-123.226050	-123.226050	15184.659289	15184.659289	174.267951	1.000000	1.000000	1.000000	
3.800625	2373.445345	2373.445345	-126.554655	-126.554655	16016.080599	16016.080599	178.975309	1.000000	1.000000	1.000000	
3.918134	2370.145354	2370.145354	-129.854646	-129.854646	16862.229103	16862.229103	183.642202	1.000000	1.000000	1.000000	
3.997461	2366.812386	2366.812386	-133.187614	-133.187614	17738.940444	17738.940444	188.355730	1.000000	1.000000	1.000000	
4.103142	2363.440818	2363.440818	-136.559182	-136.559182	18648.410152	18648.410152	193.123847	1.000000	1.000000	1.000000	
4.197226	2360.148825	2360.148825	-139.851175	-139.851175	19558.351210	19558.351210	197.779429	1.000000	1.000000	1.000000	
4.300933	2356.774070	2356.774070	-143.225930	-143.225930	20513.666966	20513.666966	202.552052	1.000000	1.000000	1.000000	
4.400705	2353.443091	2353.443091	-146.556909	-146.556909	21478.927460	21478.927460	207.262768	1.000000	1.000000	1.000000	
4.497175	2350.148917	2350.148917	-149.851083	-149.851083	22455.347155	22455.347155	211.921434	1.000000	1.000000	1.000000	
4.601161	2346.770741	2346.770741	-153.229259	-153.229259	23479.205965	23479.205965	216.698897	0.000000	0.000000	0.000000	
4.697527	2343.478191	2343.478191	-156.521809	-156.521809	24499.076650	24499.076650	221.355265	0.000000	0.000000	0.000000	
4.800560	2340.112012	2340.112012	-159.887988	-159.887988	25564.168683	25564.168683	226.115761	0.000000	0.000000	0.000000	
4.897597	2336.809005	2336.809005	-163.190995	-163.190995	26631.300759	26631.300759	230.786918	0.000000	0.000000	0.000000	
5.000805	2333.439554	2333.439554	-166.560446	-166.560446	27742.382085	27742.382085	235.552041	0.000000	0.000000	0.000000	
5.097253	2330.148972	2330.148972	-169.851028	-169.851028	28849.371598	28849.371598	240.205627	0.000000	0.000000	0.000000	
5.202353	2326.652899	2326.652899	-173.347101	-173.347101	30049.217497	30049.217497	245.149822	0.000000	0.000000	0.000000	
5.300334	2323.442854	2323.442854	-176.557146	-176.557146	31172.425797	31172.425797	249.689510	0.000000	0.000000	0.000000	
5.397006	2320.150754	2320.150754	-179.849246	-179.849246	32345.751382	32345.751382	254.345243	0.000000	0.000000	0.000000	
5.500483	2316.773925	2316.773925	-183.226075	-183.226075	33571.794639	33571.794639	259.120801	0.000000	0.000000	0.000000	
5.645083	2313.442839	2313.442839	-186.557161	-186.557161	34803.574303	34803.574303	263.831667	0.000000	0.000000	0.000000	
5.702333	2309.981966	2309.981966	-190.018034	-190.018034	36106.853339	36106.853339	268.726081	0.000000	0.000000	0.000000	
5.797177	2306.810030	2306.810030	-193.189970	-193.189970	37322.364650	37322.364650	273.211876	0.000000	0.000000	0.000000	
5.900348	2303.446289	2303.446289	-196.553711	-196.553711	38633.361504	38633.361504	277.968925	0.000000	0.000000	0.000000	
6.000853	2300.110648	2300.110648	-199.889352	-199.889352	39955.753166	39955.753166	282.686233	0.000000	0.000000	0.000000	
6.103616	2296.810442	2296.810442	-203.189558	-203.189558	41285.996330	41285.996330	287.353428	0.000000	0.000000	0.000000	
6.201852	2293.443194	2293.443194	-206.556806	-206.556806	42665.714087	42665.714087	292.115436	0.000000	0.000000	0.000000	
6.297228	2290.149554	2290.149554	-209.850446	-209.850446	44037.209678	44037.209678	296.773347	0.000000	0.000000	0.000000	
6.400788	2286.775591	2286.775591	-213.224409	-213.224409	45464.648721	45464.648721	301.544851	0.000000	0.000000	0.000000	
6.507337	2283.444740	2283.444740	-216.555260	-216.555260	46896.180546	46896.180546	306.255385	0.000000	0.000000	0.000000	
6.597620	2280.143936	2280.143936	-219.856064	-219.856064	48336.688836	48336.688836	310.923427	0.000000	0.000000	0.000000	
6.697166	2276.814946	2276.814946	-223.185054	-223.185054	49811.568275	49811.568275	315.631330	0.000000	0.000000	0.000000	
6.800606	2273.446693	2273.446693	-226.553307	-226.553307	51326.401056	51326.401056	320.394760	0.000000	0.000000	0.000000	
6.911132	2269.692648	2269.692648	-230.307352	-230.307352	53041.476424	53041.476424	325.703781	0.000000	0.000000	0.000000	
6.997110	2266.816728	2266.816728	-233.183272	-233.183272	54374.438565	54374.438565	329.770946	0.000000	0.000000	0.000000	
7.100754	2263.442743	2263.442743	-236.557257	-236.557257	55959.335927	55959.335927	334.542481	0.000000	0.000000	0.000000	
7.197137	2260.148440	2260.148440	-239.851560	-239.851560	57528.770909	57528.770909	339.201329	0.000000	0.000000	0.000000	
7.296997	2256.817418	2256.817418	-243.182582	-243.182582	59137.768059	59137.768059	343.912105	0.000000	0.000000	0.000000	
7.400454	2253.445529	2253.445529	-246.554471	-246.554471	60789.107011	60789.107011	348.680676	0.000000	0.000000	0.000000	
7.500295	2250.113524	2250.113524	-249.886476	-249.886476	62443.250879	62443.250879	353.392843	0.000000	0.000000	0.000000	
7.597052	2246.817083	2246.817083	-253.182917	-253.182917	64101.589706	64101.589706	358.054716	0.000000	0.000000	0.000000	
7.700989	2243.437944	2243.437944	-256.562056	-256.562056	65824.088607	65824.088607	362.833539	0.000000	0.000000	0.000000	
7.797443	2240.144026	2240.144026	-259.855974	-259.855974	67525.127269	67525.127269	367.491843	0.000000	0.000000	0.000000	
7.901669	2236.774382	2236.774382	-263.225618	-263.225618	69287.725746	69287.725746	372.257238	0.000000	0.000000	0.000000	
8.000672	2233.450546	2233.450546	-266.549454	-266.549454	71048.611257	71048.611257	376.957852	0.000000	0.000000	0.000000	
8.098018	2230.150191	2230.150191	-269.849809	-269.849809	72818.919254	72818.919254	381.625259	0.000000	0.000000	0.000000	
8.197096	2229.817108	2226.819362	-270.182892	-273.180638	72998.794918	74627.660874	384.221884	0.000000	0.000000	0.000000	
8.300612	2232.177371	2223.447559	-267.822629	-276.552441	71728.960726	76481.252739	384.980796	0.000000	0.000000	0.000000	
8.397074	2234.482185	2225.752373	-265.517815	-274.247627	70499.709938	75211.760756	381.721719	0.000000	0.000000	0.000000	
8.500837	2236.845921	2228.116109	-263.154079	-271.883891	69250.069489	73920.850376	378.379333	0.000000	0.000000	0.000000	
8.600897	2239.184896	2230.455084	-260.815104	-269.544916	68024.518446	72654.461702	375.071967	0.000000	0.000000	0.000000	
8.697098	2241.485294	2232.755483	-258.514706	-267.244517	66829.852967	71419.632132	371.819156	0.000000	0.000000	0.000000	
8.801082	2243.849853	2235.120041	-256.150147	-264.879959	65612.897716	70161.392576	368.475631	0.000000	0.000000	0.000000	
8.900669	2246.178200	2237.448388	-253.821800	-262.551612	64425.506107	68933.348905	365.183317	0.000000	0.000000	0.000000	
8.997184	2248.484976	2239.755164	-251.515024	-260.244836	63259.807484	67727.374848	361.921514	0.000000	0.000000	0.000000	
9.100702	2250.844669	2242.114857	-249.155331	-257.885143	62078.378885	66504.746888	358.584893	0.000000	0.000000	0.000000	
9.200606	2253.178435	2244.448623	-246.821565	-255.551377	60920.884890	65306.506216	355.284944	0.000000	0.000000	0.000000	
9.297067	2255.485016	2246.755204	-244.514984	-253.244796	59787.577377	64132.926668	352.023442	0.000000	0.000000	0.000000	
9.400756	2257.845862	2249.116050	-242.154138	-250.883950	58638.626430	62942.756234	348.685220	0.000000	0.000000	0.000000	
9.500625	2260.179269	2251.449457	-239.820731	-248.550543	57513.983049	61777.372450	345.385807	0.000000	0.000000	0.000000	
9.597086	2262.482467	2253.752655	-237.517533	-246.247345	56414.578623	60637.755057	342.129118	0.000000	0.000000	0.000000	
9.700545	2264.843687	2256.113875	-235.156313	-243.886125	55298.491475	59480.441887	338.790397	0.000000	0.000000	0.000000	
9.800400	2267.173845	2258.444033	-232.826155	-241.555967	54208.018265	58349.284991	335.495608	0.000000	0.000000	0.000000	
9.900527	2269.509887	2260.780075	-230.490113	-239.219925	53125.692302	57226.172624	332.192512	0.000000	0.000000	0.000000	
9.997069	2271.816947	2263.087135	-228.183053	-236.912865	52067.505805	56127.705728	328.930405	0.000000	0.000000	0.000000	
10.103552	2274.179649	2265.449837	-225.820351	-234.550163	50994.830851	55013.778878	325.589634	0.000000	0.000000	0.000000	
10.197128	2276.484688	2267.754876	-223.515312	-232.245124	49959.094604	53937.797515	322.330408	0.000000	0.000000	0.000000	
10.300780	2278.845025	2270.115213	-221.154975	-229.884787	48909.522772	52847.015083	318.993006	0.000000	0.000000	0.000000	
10.400768	2281.178417	2272.448605	-218.821583	-227.551395	47882.885118	51779.637287	315.693716	0.000000	0.000000	0.000000	
10.497143	2283.484609	2274.754797	-216.515391	-225.245203	46878.914595	50735.401524	312.432899	0.000000	0.000000	0.000000	
10.597240	2285.817941	2277.088129	-214.182059	-222.911871	45873.954522	49689.702355	309.133720	0.000000	0.000000	0.000000	
10.700581	2288.177410	2279.447598	-211.822590	-220.552402	44868.809764	48643.362155	305.797600	0.000000	0.000000	0.000000	
10.797486	2290.487748	2281.757936	-209.512252	-218.242064	43895.383728	47629.598481	302.530961	0.000000	0.000000	0.000000	
10.897064	2292.817772	2284.087960	-207.182228	-215.912040	42924.475785	46618.009203	299.236503	0.000000	0.000000	0.000000	
11.000507	2295.176447	2286.446635	-204.823553	-213.553365	41952.687806	45605.039636	295.901550	0.000000	0.000000	0.000000	
11.097412	2297.487908	2288.758096	-202.512092	-211.241904	41011.147325	44623.141913	292.633370	0.000000	0.000000	0.000000	
11.197183	2299.819384	2291.089572	-200.180616	-208.910428	40072.279106	43643.567007	289.336908	0.000000	0.000000	0.000000	
11.337563	2302.177311	2293.447499	-197.822689	-206.552501	39133.816325	42663.935706	286.003063	0.000000	0.000000	0.000000	
11.397349	2304.486077	2295.756265	-195.513923	-204.243735	38225.693929	41715.503115	282.738743	0.000000	0.000000	0.000000	
11.497471	2306.818272	2298.088460	-193.181728	-201.911540	37319.180211	40768.270164	279.441318	0.000000	0.000000	0.000000	
11.602124	2309.175690	2300.445878	-190.824310	-199.554122	36413.917412	39821.847731	276.108249	0.000000	0.000000	0.000000	
11.697229	2311.485624	2302.755812	-188.514376	-197.244188	35537.670027	38905.269764	272.842335	0.000000	0.000000	0.000000	
11.800680	2313.846395	2305.116583	-186.153605	-194.883417	34653.164591	37979.546148	269.504565	0.000000	0.000000	0.000000	
11.900577	2316.180221	2307.450409	-183.819779	-192.549591	33789.711148	37075.344984	266.204914	0.000000	0.000000	0.000000	
11.997007	2318.483030	2309.753218	-181.516970	-190.246782	32948.410556	36193.838220	262.949137	0.000000	0.000000	0.000000	
12.103355	2320.848232	2312.118420	-179.151768	-187.881580	32095.355993	35299.488113	259.605170	0.000000	0.000000	0.000000	
12.197268	2323.152029	2314.422217	-176.847971	-185.577783	31275.205018	34439.113716	256.348042	0.000000	0.000000	0.000000	
12.301362	2325.515854	2316.786042	-174.484146	-183.213958	30444.717313	33567.354512	253.006071	0.000000	0.000000	0.000000	
12.397139	2327.817165	2319.087353	-172.182835	-180.912647	29646.928573	32729.385738	249.752506	0.000000	0.000000	0.000000	
12.500662	2330.178745	2321.448933	-169.821255	-178.551067	28839.258652	31880.483523	246.413762	0.000000	0.000000	0.000000	
12.605779	2332.682941	2323.953129	-167.317059	-176.046871	27994.998122	30992.500667	242.873421	0.000000	0.000000	0.000000	
12.697168	2334.819137	2326.089325	-165.180863	-173.910675	27284.717571	30244.922946	239.853373	0.000000	0.000000	0.000000	
12.800875	2337.179070	2328.449258	-162.820930	-171.550742	26510.655299	29429.657131	236.517045	0.000000	0.000000	0.000000	
12.897412	2339.487956	2330.758144	-160.512044	-169.241856	25764.116236	28642.805781	233.252914	0.000000	0.000000	0.000000	
13.000737	2341.845464	2333.115652	-158.154536	-166.884348	25012.857240	27850.385583	229.920079	0.000000	0.000000	0.000000	
13.100699	2344.177059	2335.447247	-155.822941	-164.552753	24280.788817	27077.608382	226.623911	0.000000	0.000000	0.000000	
13.197255	2346.488311	2337.758499	-153.511689	-162.241501	23565.838695	26322.304678	223.356539	0.000000	0.000000	0.000000	
13.297018	2348.816807	2340.086996	-151.183193	-159.913004	22856.357695	25572.169003	220.064824	0.000000	0.000000	0.000000	
13.401096	2351.185872	2342.456060	-148.814128	-157.543940	22145.644668	24820.092999	216.715799	1.000000	0.000000	0.000000	
13.497044	2353.485238	2344.755426	-146.514762	-155.244574	21466.575601	24100.877875	213.465345	1.000000	0.000000	0.000000	
13.597082	2355.818060	2347.088248	-144.181940	-152.911752	20788.431688	23382.003752	210.167637	1.000000	0.000000	0.000000	
13.700536	2358.179011	2349.449199	-141.820989	-150.550801	20113.192792	22665.543540	206.830211	1.000000	0.000000	0.000000	
13.797350	2360.487344	2351.757532	-139.512656	-148.242468	19463.781228	21975.829360	203.567214	1.000000	1.000000	1.000000	
13.906485	2362.842576	2354.112764	-137.157424	-145.887236	18812.158850	21283.085508	200.237969	1.000000	1.000000	1.000000	
14.000361	2365.173902	2356.444090	-134.826098	-143.555910	18178.076625	20608.299209	196.942570	1.000000	1.000000	1.000000	
14.098134	2367.483642	2358.753830	-132.516358	-141.246170	17560.585183	19950.480583	193.677737	1.000000	1.000000	1.000000	
14.197378	2369.819968	2361.090156	-130.180032	-138.909844	16946.840833	19295.944864	190.375381	1.000000	1.000000	1.000000	
14.301280	2372.181787	2363.451975	-127.818213	-136.548025	16337.495615	18645.363170	187.037052	1.000000	1.000000	1.000000	
14.397390	2374.486467	2365.756655	-125.513533	-134.243345	15753.647063	18021.275775	183.779550	1.000000	1.000000	1.000000	
14.500932	2376.844349	2368.114537	-123.155651	-131.885463	15167.314420	17393.775396	180.446917	1.000000	1.000000	1.000000	
14.600628	2379.176573	2370.446761	-120.823427	-129.553239	14598.300540	16784.041760	177.150620	1.000000	1.000000	1.000000	
14.697121	2381.485938	2372.756126	-118.514062	-127.243874	14045.582848	16191.003419	173.886705	1.000000	1.000000	1.000000	
14.800721	2383.845123	2375.115311	-116.154877	-124.884689	13491.955510	15596.185606	170.552459	1.000000	1.000000	1.000000	
14.900442	2386.175640	2377.445828	-113.824360	-122.554172	12955.984868	15019.525004	167.258811	1.000000	1.000000	1.000000	
14.997900	2388.487805	2379.757993	-111.512195	-120.242007	12434.969654	14458.140265	163.991189	1.000000	1.000000	1.000000	
15.100498	2390.845238	2382.115426	-109.154762	-117.884574	11914.762065	13896.772780	160.659686	1.000000	1.000000	1.000000	
15.200423	2393.176923	2384.447111	-106.823077	-115.552889	11411.169742	13352.470111	157.364672	1.000000	1.000000	1.000000	
15.297177	2395.483250	2386.753438	-104.516750	-113.246562	10923.751110	12824.783887	154.105597	1.000000	1.000000	1.000000	
15.401140	2397.851536	2389.121724	-102.148464	-110.878276	10434.308743	12293.992134	150.759082	1.000000	1.000000	1.000000	
15.500558	2400.176634	2391.446822	-99.823366	-108.553178	9964.704347	11783.792393	147.473715	1.000000	1.000000	1.000000	
15.704739	2402.483649	2393.753837	-97.516351	-106.246163	9509.438651	11288.247082	144.214028	1.000000	1.000000	1.000000	
15.709921	2405.086391	2396.356579	-94.913609	-103.643421	9008.593101	10741.958634	140.536656	1.000000	1.000000	1.000000	
15.801018	2407.182004	2398.452192	-92.817996	-101.547808	8615.180399	10311.957326	137.575934	1.000000	1.000000	1.000000	
