AF-MATB V. 3.03
Programmed using MATLAB 7.5.0 and other Custom MATLAB Functions.

William Daniel Miller, Jr.
Air Force Research Laboratory
711th Human Performance Wing
Human Effectiveness Directorate
Applied Neuroscience Branch

RMS Center Coordinate (X,Y) is:	599.500000	565.500000	
Tracking Box X-Axis Lower Limit is:	449.500000	
Tracking Box X-Axis Upper Limit is:	749.500000	
Tracking Box Y-Axis Lower Limit is:	417.500000	
Tracking Box Y-Axis Upper Limit is:	717.500000	


Event Time	X Coordinates	Y Coordinates	X-Axis Difference	Y-Axis Difference	X-Axis Deviation	Y-Axis Deviation	Euclidian Distance From Target	X-Axis In Range?	y-Axis In Range?	Both In Range?
0.093513	596.366636	563.548911	-3.133364	-1.951089	9.817968	3.806747	3.691167	1.000000	1.000000	1.000000	
0.100896	593.233273	561.597823	-6.266727	-3.902177	39.271871	15.226989	7.382334	1.000000	1.000000	1.000000	
0.203199	590.099909	559.646734	-9.400091	-5.853266	88.361709	34.260725	11.073501	1.000000	1.000000	1.000000	
0.299403	586.987345	557.695645	-12.512655	-7.804355	156.566524	60.907956	14.747016	1.000000	1.000000	1.000000	
0.403123	583.874782	555.765356	-15.625218	-9.734644	244.147444	94.763287	18.409528	1.000000	1.000000	1.000000	
0.502898	580.762218	553.814268	-18.737782	-11.685732	351.104468	136.556342	22.083043	1.000000	1.000000	1.000000	
0.599746	577.629895	551.863179	-21.870105	-13.636821	478.301513	185.962891	25.773327	1.000000	1.000000	1.000000	
0.703250	574.497571	549.932890	-25.002429	-15.567110	625.121462	242.334910	29.452612	1.000000	1.000000	1.000000	
0.802671	571.385007	547.981801	-28.114993	-17.518199	790.452817	306.887282	33.126124	1.000000	1.000000	1.000000	
0.899287	568.435724	546.375993	-31.064276	-19.124007	964.989268	365.727657	36.478993	1.000000	1.000000	1.000000	
1.002798	565.405320	544.912664	-34.094680	-20.587336	1162.447206	423.838406	39.828201	1.000000	1.000000	1.000000	
1.099680	562.374916	543.449335	-37.125084	-22.050665	1378.271837	486.231818	43.179899	1.000000	1.000000	1.000000	
1.202707	560.832753	542.250166	-38.667247	-23.249834	1495.156014	540.554759	45.118852	1.000000	1.000000	1.000000	
1.299719	559.902109	541.680198	-39.597891	-23.819802	1567.992968	567.382980	46.210128	1.000000	1.000000	1.000000	
1.402878	558.971465	541.333829	-40.528535	-24.166171	1642.562116	584.003821	47.186502	1.000000	1.000000	1.000000	
1.502900	558.142742	541.211060	-41.357258	-24.288940	1710.422808	589.952593	47.962229	1.000000	1.000000	1.000000	
1.599562	557.415938	541.474132	-42.084062	-24.025868	1771.068263	577.242356	48.459371	1.000000	1.000000	1.000000	
1.699588	556.729694	541.798563	-42.770306	-23.701437	1829.299033	561.758125	48.898437	1.000000	1.000000	1.000000	
1.799532	556.064251	542.122994	-43.435749	-23.377006	1886.664304	546.484406	49.326957	1.000000	1.000000	1.000000	
1.899951	556.010327	542.609665	-43.489673	-22.890335	1891.351639	523.967421	49.145896	1.000000	1.000000	1.000000	
1.999690	557.444644	543.502977	-42.055356	-21.997023	1768.653004	483.869039	47.460742	1.000000	1.000000	1.000000	
2.104459	558.980880	544.416048	-40.519120	-21.083952	1641.799091	444.533038	45.676385	1.000000	1.000000	1.000000	
2.199547	560.497356	545.369679	-39.002644	-20.130321	1521.206216	405.229818	43.891184	1.000000	1.000000	1.000000	
2.302812	562.013833	546.282750	-37.486167	-19.217250	1405.212742	369.302682	42.124998	1.000000	1.000000	1.000000	
2.399363	563.530309	547.195822	-35.969691	-18.304178	1293.818669	335.042945	40.359158	1.000000	1.000000	1.000000	
2.502908	565.107105	548.089133	-34.392895	-17.410867	1182.871200	303.138292	38.548794	1.000000	1.000000	1.000000	
2.602820	566.623582	549.002204	-32.876418	-16.497796	1080.858877	272.177266	36.783640	1.000000	1.000000	1.000000	
2.699594	568.098458	549.915275	-31.401542	-15.584725	986.056833	242.883639	35.056247	1.000000	1.000000	1.000000	
2.799433	569.532774	550.828347	-29.967226	-14.671653	898.034606	215.257410	33.366031	1.000000	1.000000	1.000000	
2.902877	570.947331	551.741418	-28.552669	-13.758582	815.254917	189.298579	31.694692	1.000000	1.000000	1.000000	
2.999666	572.381647	552.654489	-27.118353	-12.845511	735.405059	165.007146	30.006869	1.000000	1.000000	1.000000	
3.099490	573.796204	553.547801	-25.703796	-11.952199	660.685152	142.855072	28.346785	1.000000	1.000000	1.000000	
3.202791	575.210760	554.460872	-24.289240	-11.039128	589.967184	121.862351	26.680134	1.000000	1.000000	1.000000	
3.299305	576.604516	555.373943	-22.895484	-10.126057	524.203175	102.537029	25.034780	1.000000	1.000000	1.000000	
3.402931	578.019073	556.267254	-21.480927	-9.232746	461.430241	85.243593	23.381057	1.000000	1.000000	1.000000	
3.499307	579.433629	557.160566	-20.066371	-8.339434	402.659245	69.546166	21.730288	1.000000	1.000000	1.000000	
3.602911	580.867945	558.073637	-18.632055	-7.426363	347.153460	55.150869	20.057526	1.000000	1.000000	1.000000	
3.699361	582.261702	558.986708	-17.238298	-6.513292	297.158928	42.422971	18.427748	1.000000	1.000000	1.000000	
3.802996	583.594098	559.880019	-15.905902	-5.619981	252.997716	31.584182	16.869555	1.000000	1.000000	1.000000	
3.899407	584.967054	560.793091	-14.532946	-4.706909	211.206507	22.154995	15.276174	1.000000	1.000000	1.000000	
3.999480	585.749291	561.686402	-13.750709	-3.813598	189.082004	14.543530	14.269742	1.000000	1.000000	1.000000	
4.105346	585.593447	562.579713	-13.906553	-2.920287	193.392212	8.528075	14.209866	1.000000	1.000000	1.000000	
4.199396	585.314884	563.492784	-14.185116	-2.007216	201.217530	4.028914	14.326425	1.000000	1.000000	1.000000	
4.302930	585.057120	564.405856	-14.442880	-1.094144	208.596786	1.197152	14.484265	1.000000	1.000000	1.000000	
4.402951	584.799356	565.318927	-14.700644	-0.181073	216.108927	0.032787	14.701759	1.000000	1.000000	1.000000	
4.499300	584.541593	566.231998	-14.958407	0.731998	223.753952	0.535821	14.976307	1.000000	1.000000	1.000000	
4.612165	584.263029	567.145070	-15.236971	1.645070	232.165286	2.706254	15.325519	1.000000	1.000000	1.000000	
4.702919	584.026065	568.098701	-15.473935	2.598701	239.442654	6.753246	15.690631	1.000000	1.000000	1.000000	
4.799330	583.768302	569.011772	-15.731698	3.511772	247.486332	12.332543	16.118898	1.000000	1.000000	1.000000	
4.900026	583.510538	569.924843	-15.989462	4.424843	255.662894	19.579238	16.590423	1.000000	1.000000	1.000000	
5.001739	583.231974	570.837915	-16.268026	5.337915	264.648657	28.493332	17.121390	1.000000	1.000000	1.000000	
5.107436	582.953411	571.588746	-16.546589	6.088746	273.789615	37.072826	17.631292	1.000000	1.000000	1.000000	
5.198509	582.716447	571.953737	-16.783553	6.453737	281.687647	41.650723	17.981612	1.000000	1.000000	1.000000	
5.302388	585.081218	572.054438	-14.418782	6.554438	207.901275	42.960663	15.838622	1.000000	1.000000	1.000000	
5.398701	587.445989	572.094820	-12.054011	6.594820	145.299186	43.491646	13.740118	1.000000	1.000000	1.000000	
5.501916	589.810760	571.932401	-9.689240	6.432401	93.881379	41.375781	11.630011	1.000000	1.000000	1.000000	
5.601870	592.154730	571.749182	-7.345270	6.249182	53.952984	39.052278	9.643924	1.000000	1.000000	1.000000	
5.698382	594.498701	571.565963	-5.001299	6.065963	25.012988	36.795912	7.861864	1.000000	1.000000	1.000000	
5.801883	596.863472	571.382745	-2.636528	5.882745	6.951279	34.606685	6.446547	1.000000	1.000000	1.000000	
5.901809	599.228243	571.199526	-0.271757	5.699526	0.073852	32.484596	5.706001	1.000000	1.000000	1.000000	
5.998336	601.572214	571.016307	2.072214	5.516307	4.294070	30.429645	5.892683	1.000000	1.000000	1.000000	
6.104535	603.936985	570.792528	4.436985	5.292528	19.686833	28.010857	6.906351	1.000000	1.000000	1.000000	
6.202821	606.240396	570.406510	6.740396	4.906510	45.432932	24.073837	8.337072	1.000000	1.000000	1.000000	
6.298853	607.096126	569.959131	7.596126	4.459131	57.701136	19.883849	8.808234	1.000000	1.000000	1.000000	
6.401867	607.748017	569.450392	8.248017	3.950392	68.029788	15.605599	9.145238	1.000000	1.000000	1.000000	
6.501817	608.379108	568.941653	8.879108	3.441653	78.838560	11.844979	9.522790	1.000000	1.000000	1.000000	
6.598481	608.541159	568.372595	9.041159	2.872595	81.742554	8.251800	9.486535	1.000000	1.000000	1.000000	
6.701089	608.132250	567.701616	8.632250	2.201616	74.515735	4.847113	8.908583	1.000000	1.000000	1.000000	
6.801992	607.703581	567.051437	8.203581	1.551437	67.298734	2.406957	8.348993	1.000000	1.000000	1.000000	
6.898646	607.171951	566.401258	7.671951	0.901258	58.858838	0.812267	7.724707	1.000000	1.000000	1.000000	
7.001891	606.640322	565.751080	7.140322	0.251080	50.984202	0.063041	7.144735	1.000000	1.000000	1.000000	
7.101950	606.108693	565.100901	6.608693	-0.399099	43.674824	0.159280	6.620733	1.000000	1.000000	1.000000	
7.198292	605.577064	564.470482	6.077064	-1.029518	36.930706	1.059907	6.163653	1.000000	1.000000	1.000000	
7.298366	605.045435	563.840064	5.545435	-1.659936	30.751847	2.755389	5.788543	1.000000	1.000000	1.000000	
7.398303	604.513806	563.189885	5.013806	-2.310115	25.138247	5.336632	5.520406	1.000000	1.000000	1.000000	
7.502038	603.982176	562.539706	4.482176	-2.960294	20.089906	8.763340	5.371522	1.000000	1.000000	1.000000	
7.598285	603.450547	561.889527	3.950547	-3.610473	15.606824	13.035513	5.351854	1.000000	1.000000	1.000000	
7.698615	602.918918	561.259109	3.418918	-4.240891	11.689001	17.985160	5.447400	1.000000	1.000000	1.000000	
7.801640	602.387289	560.628690	2.887289	-4.871310	8.336438	23.729663	5.662694	1.000000	1.000000	1.000000	
7.898542	601.855660	559.978511	2.355660	-5.521489	5.549133	30.486840	6.002997	1.000000	1.000000	1.000000	
8.001700	601.324031	559.348092	1.824031	-6.151908	3.327088	37.845968	6.416623	1.000000	1.000000	1.000000	
8.104041	600.792401	558.697914	1.292401	-6.802086	1.670302	46.268380	6.923777	1.000000	1.000000	1.000000	
8.198472	600.260772	558.047735	0.760772	-7.452265	0.578775	55.536256	7.490997	1.000000	1.000000	1.000000	
8.301941	599.729143	557.417316	0.229143	-8.082684	0.052507	65.329779	8.085931	1.000000	1.000000	1.000000	
8.398237	599.197514	556.767137	-0.302486	-8.732863	0.091498	76.262890	8.738100	1.000000	1.000000	1.000000	
8.502050	598.665885	556.116959	-0.834115	-9.383041	0.695748	88.041466	9.420043	1.000000	1.000000	1.000000	
8.598187	598.134256	555.466780	-1.365744	-10.033220	1.865258	100.665507	10.125748	1.000000	1.000000	1.000000	
8.701727	597.602627	554.836361	-1.897373	-10.663639	3.600026	113.713195	10.831123	1.000000	1.000000	1.000000	
8.798330	597.070997	554.186182	-2.429003	-11.313818	5.900054	128.002470	11.571626	1.000000	1.000000	1.000000	
8.898376	596.539368	553.536004	-2.960632	-11.963996	8.765341	143.137210	12.324875	1.000000	1.000000	1.000000	
8.998530	596.007739	552.905585	-3.492261	-12.594415	12.195887	158.619293	13.069628	1.000000	1.000000	1.000000	
9.098966	595.476110	552.255406	-4.023890	-13.244594	16.191692	175.419267	13.842361	1.000000	1.000000	1.000000	
9.200018	594.944481	551.605227	-4.555519	-13.894773	20.752756	193.064706	14.622498	1.000000	1.000000	1.000000	
9.301691	594.412852	550.934249	-5.087148	-14.565751	25.879079	212.161113	15.428551	1.000000	1.000000	1.000000	
9.398401	593.881222	550.284070	-5.618778	-15.215930	31.570662	231.524529	16.220209	1.000000	1.000000	1.000000	
9.501815	593.349593	549.653651	-6.150407	-15.846349	37.827503	251.106772	16.998067	1.000000	1.000000	1.000000	
9.601713	592.817964	549.003472	-6.682036	-16.496528	44.649604	272.135423	17.798456	1.000000	1.000000	1.000000	
9.698609	592.286335	548.353294	-7.213665	-17.146706	52.036964	294.009538	18.602325	1.000000	1.000000	1.000000	
9.801755	591.754706	547.722875	-7.745294	-17.777125	59.989583	316.026176	19.391126	1.000000	1.000000	1.000000	
9.898245	591.223077	547.153816	-8.276923	-18.346184	68.507461	336.582461	20.126846	1.000000	1.000000	1.000000	
10.001550	590.691447	546.665877	-8.808553	-18.834123	77.590598	354.724173	20.792181	1.000000	1.000000	1.000000	
10.104034	590.159818	546.218499	-9.340182	-19.281501	87.238995	371.776293	21.424642	1.000000	1.000000	1.000000	
10.198495	589.628189	545.832480	-9.871811	-19.667520	97.452650	386.811345	22.005999	1.000000	1.000000	1.000000	
10.299950	589.096560	545.466221	-10.403440	-20.033779	108.231565	401.352293	22.573964	1.000000	1.000000	1.000000	
10.398395	591.513030	546.367059	-7.986970	-19.132941	63.791696	366.069438	20.733093	1.000000	1.000000	1.000000	
10.501941	593.929499	547.267896	-5.570501	-18.232104	31.030479	332.409600	19.064104	1.000000	1.000000	1.000000	
10.600530	596.345969	548.168734	-3.154031	-17.331266	9.947912	300.372779	17.615922	1.000000	1.000000	1.000000	
10.701834	598.762439	549.090372	-0.737561	-16.409628	0.543997	269.275901	16.426195	1.000000	1.000000	1.000000	
10.798677	601.178908	550.031769	1.678908	-15.468231	2.818733	239.266160	15.559078	1.000000	1.000000	1.000000	
10.902468	603.595378	550.973167	4.095378	-14.526833	16.772119	211.028879	15.093078	1.000000	1.000000	1.000000	
11.001753	606.011847	551.914565	6.511847	-13.585435	42.404157	184.564056	15.065464	1.000000	1.000000	1.000000	
11.098257	608.428317	552.896522	8.928317	-12.603478	79.714846	158.847653	15.445469	1.000000	1.000000	1.000000	
11.198341	610.844787	553.837920	11.344787	-11.662080	128.704185	136.004114	16.269859	1.000000	1.000000	1.000000	
11.298244	613.261256	554.819877	13.761256	-10.680123	189.372176	114.065018	17.419449	1.000000	1.000000	1.000000	
11.402064	615.677726	555.761275	16.177726	-9.738725	261.718818	94.842763	18.882838	1.000000	1.000000	1.000000	
11.498402	618.094196	556.702673	18.594196	-8.797327	345.744111	77.392968	20.570296	1.000000	1.000000	1.000000	
11.601524	620.510665	557.684630	21.010665	-7.815370	441.448055	61.080003	22.417138	1.000000	1.000000	1.000000	
11.698045	622.927135	558.666588	23.427135	-6.833412	548.830650	46.695521	24.403405	1.000000	1.000000	1.000000	
11.801642	625.343605	559.648546	25.843605	-5.851454	667.891896	34.239519	26.497762	1.000000	1.000000	1.000000	
11.901679	627.760074	560.874903	28.260074	-4.625097	798.631793	21.391521	28.636049	1.000000	1.000000	1.000000	
11.998366	629.810464	562.101261	30.310464	-3.398739	918.724218	11.551428	30.500420	1.000000	1.000000	1.000000	
12.099258	631.779733	563.368178	32.279733	-2.131822	1041.981193	4.544663	32.350052	1.000000	1.000000	1.000000	
12.201772	633.606523	564.594536	34.106523	-0.905464	1163.254919	0.819865	34.118540	1.000000	1.000000	1.000000	
12.298167	635.290833	565.861454	35.790833	0.361454	1280.983709	0.130649	35.792658	1.000000	1.000000	1.000000	
12.397672	636.934582	567.087811	37.434582	1.587811	1401.347959	2.521145	37.468241	1.000000	1.000000	1.000000	
12.501341	638.497212	568.314169	38.997212	2.814169	1520.782547	7.919547	39.098620	1.000000	1.000000	1.000000	
12.598332	640.040082	569.540527	40.540082	4.040527	1643.498223	16.325855	40.740939	1.000000	1.000000	1.000000	
12.698397	641.501831	570.766884	42.001831	5.266884	1764.153834	27.740069	42.330768	1.000000	1.000000	1.000000	
12.802026	642.942781	571.972442	43.442781	6.472442	1887.275218	41.892503	43.922292	1.000000	1.000000	1.000000	
12.898501	644.383731	573.198799	44.883731	7.698799	2014.549273	59.271512	45.539222	1.000000	1.000000	1.000000	
12.998231	645.824680	574.404357	46.324680	8.904357	2145.976000	79.287574	47.172699	1.000000	1.000000	1.000000	
13.104763	647.265630	575.609915	47.765630	10.109915	2281.555398	102.210374	48.823824	1.000000	1.000000	1.000000	
13.198284	648.727380	576.815472	49.227380	11.315472	2423.334895	128.039913	50.511135	1.000000	1.000000	1.000000	
13.301719	650.189129	578.021030	50.689129	12.521030	2569.387815	156.776190	52.212681	1.000000	1.000000	1.000000	
13.401637	651.630079	579.226588	52.130079	13.726588	2717.545116	188.419205	53.906997	1.000000	1.000000	1.000000	
13.498126	652.969108	580.452945	53.469108	14.952945	2858.945558	223.590569	55.520592	1.000000	1.000000	1.000000	
13.598249	654.247818	581.679303	54.747818	16.179303	2997.323585	261.769838	57.088470	1.000000	1.000000	1.000000	
13.701661	655.302928	582.905660	55.802928	17.405660	3113.966743	302.957014	58.454459	1.000000	1.000000	1.000000	
13.798277	655.991957	584.091458	56.491957	18.591458	3191.341247	345.642312	59.472545	1.000000	1.000000	1.000000	
13.901737	656.416827	584.728136	56.916827	19.228136	3239.525197	369.721201	60.077004	1.000000	1.000000	1.000000	
14.001479	656.619137	584.897853	57.119137	19.397853	3262.595771	376.276712	60.323068	1.000000	1.000000	1.000000	
14.104285	656.638406	584.377011	57.138406	18.877011	3264.797473	356.341540	60.175901	1.000000	1.000000	1.000000	
14.198506	656.555756	583.144809	57.055756	17.644809	3255.359285	311.339268	59.721843	1.000000	1.000000	1.000000	
14.302064	656.473106	581.912606	56.973106	16.412606	3245.934758	269.373640	59.290036	1.000000	1.000000	1.000000	
14.401921	656.349895	580.680404	56.849895	15.180404	3231.910586	230.444659	58.841781	1.000000	1.000000	1.000000	
14.497693	656.226685	579.448201	56.726685	13.948201	3217.916774	194.552322	58.416343	1.000000	1.000000	1.000000	
14.598371	656.124274	579.110399	56.624274	13.610399	3206.308462	185.242961	58.237028	1.000000	1.000000	1.000000	
14.698283	656.001064	579.361237	56.501064	13.861237	3192.370248	192.133881	58.176491	1.000000	1.000000	1.000000	
14.798463	655.898654	579.876234	56.398654	14.376234	3180.808147	206.676112	58.202098	1.000000	1.000000	1.000000	
14.898332	655.796243	580.452592	56.296243	14.952592	3169.267023	223.580004	58.248150	1.000000	1.000000	1.000000	
15.001970	655.673033	581.008150	56.173033	15.508150	3155.409643	240.502701	58.274457	1.000000	1.000000	1.000000	
15.103350	655.549823	581.787307	56.049823	16.287307	3141.582624	265.276374	58.368305	1.000000	1.000000	1.000000	
15.198586	655.447412	582.627825	55.947412	17.127825	3130.112947	293.362381	58.510472	1.000000	1.000000	1.000000	
15.301736	655.345002	583.427782	55.845002	17.927782	3118.664246	321.405381	58.652107	1.000000	1.000000	1.000000	
15.398167	655.221792	584.268300	55.721792	18.768300	3104.918061	352.249085	58.797680	1.000000	1.000000	1.000000	
15.501773	655.119381	585.068258	55.619381	19.568258	3093.515572	382.916707	58.961278	1.000000	1.000000	1.000000	
15.601761	654.996171	585.908775	55.496171	20.408775	3079.824984	416.518107	59.129883	1.000000	1.000000	1.000000	
15.698052	654.893761	586.749293	55.393761	21.249293	3068.468707	451.532448	59.329598	1.000000	1.000000	1.000000	
15.798243	654.791350	587.549251	55.291350	22.049251	3057.133405	486.169448	59.525649	1.000000	1.000000	1.000000	
15.898235	654.688940	588.349208	55.188940	22.849208	3045.819079	522.086312	59.731946	1.000000	1.000000	1.000000	
15.998213	654.565729	589.189726	55.065729	23.689726	3032.234561	561.203106	59.945289	1.000000	1.000000	1.000000	
16.101837	654.442519	590.030243	54.942519	24.530243	3018.680405	601.732840	60.169870	1.000000	1.000000	1.000000	
16.201735	654.340109	590.830201	54.840109	25.330201	3007.437527	641.619082	60.407422	1.000000	1.000000	1.000000	
16.298652	654.216898	591.690479	54.716898	26.190479	2993.938969	685.941170	60.662016	1.000000	1.000000	1.000000	
16.398221	653.220731	591.994371	53.720731	26.494371	2885.916916	701.951718	59.898820	1.000000	1.000000	1.000000	
16.502052	652.224563	592.298264	52.724563	26.798264	2779.879564	718.146968	59.144117	1.000000	1.000000	1.000000	
16.598808	651.249196	592.602157	51.749196	27.102157	2677.979245	734.526919	58.416660	1.000000	1.000000	1.000000	
16.702463	650.273828	592.906050	50.773828	27.406050	2577.981610	751.091571	57.698121	1.000000	1.000000	1.000000	
16.798258	649.298460	593.209943	49.798460	27.709943	2479.886659	767.840926	56.988837	1.000000	1.000000	1.000000	
16.898841	648.363653	593.513836	48.863653	28.013836	2387.656566	784.774982	56.324342	1.000000	1.000000	1.000000	
17.001733	647.388285	593.817728	47.888285	28.317728	2293.287861	801.893740	55.634356	1.000000	1.000000	1.000000	
17.097563	646.412918	594.121621	46.912918	28.621621	2200.821840	819.197200	54.954700	1.000000	1.000000	1.000000	
