AF-MATB V. 3.03
Programmed using MATLAB 7.5.0 and other Custom MATLAB Functions.

William Daniel Miller, Jr.
Air Force Research Laboratory
711th Human Performance Wing
Human Effectiveness Directorate
Applied Neuroscience Branch

RMS Target Value is:	2500.000000	
Main Tank Automation Lower Limit is:	2350.000000	
Main Tank Automation Upper Limit is:	2650.000000	


Event Time	Tank A Value	Tank B Value	Tank A Difference	Tank B Difference	Tank A Deviation	Tank B Deviation	Euclidian Distance From Target	Tank A In Range?	Tank B In Range?	Both In Range?
0.089517	2499.570476	2499.570476	-0.429524	-0.429524	0.184491	0.184491	0.607439	1.000000	1.000000	1.000000	
0.100865	2496.754883	2496.754883	-3.245117	-3.245117	10.530782	10.530782	4.589288	1.000000	1.000000	1.000000	
0.203106	2493.371446	2493.371446	-6.628554	-6.628554	43.937725	43.937725	9.374191	1.000000	1.000000	1.000000	
0.299367	2490.076416	2490.076416	-9.923584	-9.923584	98.477516	98.477516	14.034067	1.000000	1.000000	1.000000	
0.403029	2486.701234	2486.701234	-13.298766	-13.298766	176.857179	176.857179	18.807295	1.000000	1.000000	1.000000	
0.502805	2483.373164	2483.373164	-16.626836	-16.626836	276.451692	276.451692	23.513898	1.000000	1.000000	1.000000	
0.599690	2480.069537	2480.069537	-19.930463	-19.930463	397.223374	397.223374	28.185932	1.000000	1.000000	1.000000	
0.703157	2476.699166	2476.699166	-23.300834	-23.300834	542.928867	542.928867	32.952356	1.000000	1.000000	1.000000	
0.802576	2473.373084	2473.373084	-26.626916	-26.626916	708.992635	708.992635	37.656145	1.000000	1.000000	1.000000	
0.899250	2470.077691	2470.077691	-29.922309	-29.922309	895.344590	895.344590	42.316536	1.000000	1.000000	1.000000	
1.002698	2466.701717	2466.701717	-33.298283	-33.298283	1108.775636	1108.775636	47.090883	1.000000	1.000000	1.000000	
1.099633	2463.404057	2463.404057	-36.595943	-36.595943	1339.263062	1339.263062	51.754479	1.000000	1.000000	1.000000	
1.202612	2460.041855	2460.041855	-39.958145	-39.958145	1596.653323	1596.653323	56.509350	1.000000	1.000000	1.000000	
1.299660	2456.737352	2456.737352	-43.262648	-43.262648	1871.656747	1871.656747	61.182624	1.000000	1.000000	1.000000	
1.402783	2453.371451	2453.371451	-46.628549	-46.628549	2174.221624	2174.221624	65.942727	1.000000	1.000000	1.000000	
1.502805	2450.042118	2450.042118	-49.957882	-49.957882	2495.789933	2495.789933	70.651114	1.000000	1.000000	1.000000	
1.599525	2446.737957	2446.737957	-53.262043	-53.262043	2836.845246	2836.845246	75.323904	1.000000	1.000000	1.000000	
1.699550	2443.406101	2443.406101	-56.593899	-56.593899	3202.869382	3202.869382	80.035859	1.000000	1.000000	1.000000	
1.799464	2440.072791	2440.072791	-59.927209	-59.927209	3591.270333	3591.270333	84.749871	1.000000	1.000000	1.000000	
1.899909	2436.736402	2436.736402	-63.263598	-63.263598	4002.282821	4002.282821	89.468238	1.000000	1.000000	1.000000	
1.999638	2433.408610	2433.408610	-66.591390	-66.591390	4434.413263	4434.413263	94.174447	1.000000	1.000000	1.000000	
2.104423	2430.076797	2430.076797	-69.923203	-69.923203	4889.254338	4889.254338	98.886342	1.000000	1.000000	1.000000	
2.199492	2426.739296	2426.739296	-73.260704	-73.260704	5367.130821	5367.130821	103.606282	1.000000	1.000000	1.000000	
2.302713	2423.375961	2423.375961	-76.624039	-76.624039	5871.243397	5871.243397	108.362756	1.000000	1.000000	1.000000	
2.399324	2420.074964	2420.074964	-79.925036	-79.925036	6388.011359	6388.011359	113.031070	1.000000	1.000000	1.000000	
2.502808	2416.704187	2416.704187	-83.295813	-83.295813	6938.192426	6938.192426	117.798068	1.000000	1.000000	1.000000	
2.602724	2413.373444	2413.373444	-86.626556	-86.626556	7504.160264	7504.160264	122.508451	1.000000	1.000000	1.000000	
2.699550	2410.073773	2410.073773	-89.926227	-89.926227	8086.726308	8086.726308	127.174890	1.000000	1.000000	1.000000	
2.799360	2406.742901	2406.742901	-93.257099	-93.257099	8696.886498	8696.886498	131.885454	1.000000	1.000000	1.000000	
2.902777	2403.371825	2403.371825	-96.628175	-96.628175	9337.004245	9337.004245	136.652876	1.000000	1.000000	1.000000	
2.999612	2400.070764	2400.070764	-99.929236	-99.929236	9985.852197	9985.852197	141.321281	1.000000	1.000000	1.000000	
3.099451	2396.739999	2396.739999	-103.260001	-103.260001	10662.627786	10662.627786	146.031694	1.000000	1.000000	1.000000	
3.202692	2393.374397	2393.374397	-106.625603	-106.625603	11369.019121	11369.019121	150.791373	1.000000	1.000000	1.000000	
3.299267	2390.078662	2390.078662	-109.921338	-109.921338	12082.700624	12082.700624	155.452247	1.000000	1.000000	1.000000	
3.402835	2386.705425	2386.705425	-113.294575	-113.294575	12835.660626	12835.660626	160.222724	1.000000	1.000000	1.000000	
3.499266	2383.411828	2383.411828	-116.588172	-116.588172	13592.801808	13592.801808	164.880574	1.000000	1.000000	1.000000	
3.602810	2380.039340	2380.039340	-119.960660	-119.960660	14390.559839	14390.559839	169.649992	1.000000	1.000000	1.000000	
3.699321	2376.745615	2376.745615	-123.254385	-123.254385	15191.643450	15191.643450	174.308023	1.000000	1.000000	1.000000	
3.802896	2373.372250	2373.372250	-126.627750	-126.627750	16034.586980	16034.586980	179.078681	1.000000	1.000000	1.000000	
3.899367	2370.073392	2370.073392	-129.926608	-129.926608	16880.923386	16880.923386	183.743971	1.000000	1.000000	1.000000	
3.999439	2366.742670	2366.742670	-133.257330	-133.257330	17757.515965	17757.515965	188.454323	1.000000	1.000000	1.000000	
4.105244	2363.367873	2363.367873	-136.632127	-136.632127	18668.338189	18668.338189	193.227007	1.000000	1.000000	1.000000	
4.199356	2360.078446	2360.078446	-139.921554	-139.921554	19578.041368	19578.041368	197.878960	1.000000	1.000000	1.000000	
4.302830	2356.710128	2356.710128	-143.289872	-143.289872	20531.987398	20531.987398	202.642480	1.000000	1.000000	1.000000	
4.402850	2353.373739	2353.373739	-146.626261	-146.626261	21499.260481	21499.260481	207.360847	1.000000	1.000000	1.000000	
4.499259	2350.079414	2350.079414	-149.920586	-149.920586	22476.181981	22476.181981	212.019725	1.000000	1.000000	1.000000	
4.602955	2346.703526	2346.703526	-153.296474	-153.296474	23499.808812	23499.808812	216.793952	0.000000	0.000000	0.000000	
4.702785	2343.374536	2343.374536	-156.625464	-156.625464	24531.535833	24531.535833	221.501855	0.000000	0.000000	0.000000	
4.799276	2340.079079	2340.079079	-159.920921	-159.920921	25574.701079	25574.701079	226.162336	0.000000	0.000000	0.000000	
4.899934	2336.756825	2336.756825	-163.243175	-163.243175	26648.334160	26648.334160	230.860712	0.000000	0.000000	0.000000	
5.001601	2333.410214	2333.410214	-166.589786	-166.589786	27752.156936	27752.156936	235.593535	0.000000	0.000000	0.000000	
5.107221	2329.825455	2329.825455	-170.174545	-170.174545	28959.375737	28959.375737	240.663149	0.000000	0.000000	0.000000	
5.198454	2326.779243	2326.779243	-173.220757	-173.220757	30005.430547	30005.430547	244.971143	0.000000	0.000000	0.000000	
5.302254	2323.394716	2323.394716	-176.605284	-176.605284	31189.426463	31189.426463	249.757588	0.000000	0.000000	0.000000	
5.398621	2320.106914	2320.106914	-179.893086	-179.893086	32361.522458	32361.522458	254.407242	0.000000	0.000000	0.000000	
5.501781	2316.737997	2316.737997	-183.262003	-183.262003	33584.961586	33584.961586	259.171610	0.000000	0.000000	0.000000	
5.601734	2313.406356	2313.406356	-186.593644	-186.593644	34817.188102	34817.188102	263.883262	0.000000	0.000000	0.000000	
5.698328	2310.112502	2310.112502	-189.887498	-189.887498	36057.261973	36057.261973	268.541475	0.000000	0.000000	0.000000	
5.801746	2306.739137	2306.739137	-193.260863	-193.260863	37349.761064	37349.761064	273.312133	0.000000	0.000000	0.000000	
5.901657	2303.408843	2303.408843	-196.591157	-196.591157	38648.083093	38648.083093	278.021881	0.000000	0.000000	0.000000	
5.998279	2300.114754	2300.114754	-199.885246	-199.885246	39954.111699	39954.111699	282.680426	0.000000	0.000000	0.000000	
6.104427	2296.739144	2296.739144	-203.260856	-203.260856	41314.975710	41314.975710	287.454260	0.000000	0.000000	0.000000	
6.202599	2293.396788	2293.396788	-206.603212	-206.603212	42684.887258	42684.887258	292.181065	0.000000	0.000000	0.000000	
6.298790	2290.109927	2290.109927	-209.890073	-209.890073	44053.842742	44053.842742	296.829388	0.000000	0.000000	0.000000	
6.401727	2286.744710	2286.744710	-213.255290	-213.255290	45477.818591	45477.818591	301.588523	0.000000	0.000000	0.000000	
6.501679	2283.411080	2283.411080	-216.588920	-216.588920	46910.760398	46910.760398	306.302989	0.000000	0.000000	0.000000	
6.598422	2280.113141	2280.113141	-219.886859	-219.886859	48350.230664	48350.230664	310.966978	0.000000	0.000000	0.000000	
6.700948	2276.770828	2276.770828	-223.229172	-223.229172	49831.263148	49831.263148	315.693722	0.000000	0.000000	0.000000	
6.801852	2273.407515	2273.407515	-226.592485	-226.592485	51344.154366	51344.154366	320.450166	0.000000	0.000000	0.000000	
6.898572	2270.107181	2270.107181	-229.892819	-229.892819	52850.708168	52850.708168	325.117542	0.000000	0.000000	0.000000	
7.001753	2266.739441	2266.739441	-233.260559	-233.260559	54410.488413	54410.488413	329.880246	0.000000	0.000000	0.000000	
7.101810	2263.411328	2263.411328	-236.588672	-236.588672	55974.199830	55974.199830	334.586909	0.000000	0.000000	0.000000	
7.198235	2260.114181	2260.114181	-239.885819	-239.885819	57545.206374	57545.206374	339.249779	0.000000	0.000000	0.000000	
7.298309	2256.776102	2256.776102	-243.223898	-243.223898	59157.864651	59157.864651	343.970536	0.000000	0.000000	0.000000	
7.398247	2253.443198	2253.443198	-246.556802	-246.556802	60790.256454	60790.256454	348.683973	0.000000	0.000000	0.000000	
7.501897	2250.069556	2250.069556	-249.930444	-249.930444	62465.226947	62465.226947	353.455024	0.000000	0.000000	0.000000	
7.598228	2246.779594	2246.779594	-253.220406	-253.220406	64120.573998	64120.573998	358.107732	0.000000	0.000000	0.000000	
7.698550	2243.433004	2243.433004	-256.566996	-256.566996	65826.623470	65826.623470	362.840525	0.000000	0.000000	0.000000	
7.801498	2240.078523	2240.078523	-259.921477	-259.921477	67559.174388	67559.174388	367.584478	0.000000	0.000000	0.000000	
7.898477	2236.774703	2236.774703	-263.225297	-263.225297	69287.556871	69287.556871	372.256785	0.000000	0.000000	0.000000	
8.001553	2233.409593	2233.409593	-266.590407	-266.590407	71070.444883	71070.444883	377.015769	0.000000	0.000000	0.000000	
8.103904	2230.077716	2230.077716	-269.922284	-269.922284	72858.039171	72858.039171	381.727754	0.000000	0.000000	0.000000	
8.198413	2226.772828	2226.772828	-273.227172	-273.227172	74653.087674	74653.087674	386.401573	0.000000	0.000000	0.000000	
8.301795	2223.406863	2223.406863	-276.593137	-276.593137	76503.763707	76503.763707	391.161766	0.000000	0.000000	0.000000	
8.398178	2220.114399	2220.114399	-279.885601	-279.885601	78335.949828	78335.949828	395.818013	0.000000	0.000000	0.000000	
8.501907	2216.740713	2216.740713	-283.259287	-283.259287	80235.823464	80235.823464	400.589125	0.000000	0.000000	0.000000	
8.598128	2213.447843	2213.447843	-286.552157	-286.552157	82112.138558	82112.138558	405.245946	0.000000	0.000000	0.000000	
8.701578	2210.078499	2210.078499	-289.921501	-289.921501	84054.476669	84054.476669	410.010919	0.000000	0.000000	0.000000	
8.798271	2206.780496	2206.780496	-293.219504	-293.219504	85977.677236	85977.677236	414.674999	0.000000	0.000000	0.000000	
8.898319	2203.442439	2203.442439	-296.557561	-296.557561	87946.386902	87946.386902	419.395725	0.000000	0.000000	0.000000	
8.998463	2200.109856	2200.109856	-299.890144	-299.890144	89934.098208	89934.098208	424.108708	0.000000	0.000000	0.000000	
9.098901	2196.772441	2196.772441	-303.227559	-303.227559	91946.952755	91946.952755	428.828527	0.000000	0.000000	0.000000	
9.199922	2193.429272	2193.429272	-306.570728	-306.570728	93985.611147	93985.611147	433.556481	0.000000	0.000000	0.000000	
9.301545	2190.076887	2190.076887	-309.923113	-309.923113	96052.336175	96052.336175	438.297470	0.000000	0.000000	0.000000	
9.398342	2186.779547	2186.779547	-313.220453	-313.220453	98107.052186	98107.052186	442.960613	0.000000	0.000000	0.000000	
9.501667	2183.410374	2183.410374	-316.589626	-316.589626	100228.991303	100228.991303	447.725343	0.000000	0.000000	0.000000	
9.601564	2180.078925	2180.078925	-319.921075	-319.921075	102349.494425	102349.494425	452.436724	0.000000	0.000000	0.000000	
9.698528	2176.774977	2176.774977	-323.225023	-323.225023	104474.415531	104474.415531	457.109211	0.000000	0.000000	0.000000	
9.801605	2173.408520	2173.408520	-326.591480	-326.591480	106661.994892	106661.994892	461.870101	0.000000	0.000000	0.000000	
9.898184	2170.114260	2170.114260	-329.885740	-329.885740	108824.601671	108824.601671	466.528888	0.000000	0.000000	0.000000	
10.001405	2166.746028	2166.746028	-333.253972	-333.253972	111058.210106	111058.210106	471.292287	0.000000	0.000000	0.000000	
10.103879	2163.413402	2163.413402	-336.586598	-336.586598	113290.537857	113290.537857	476.005332	0.000000	0.000000	0.000000	
10.198431	2163.083046	2160.109839	-336.916954	-339.890161	113513.033986	115525.321323	478.579518	0.000000	0.000000	0.000000	
10.299850	2162.748325	2156.762629	-337.251675	-343.237371	113738.692402	117811.892815	481.197034	0.000000	0.000000	0.000000	
10.398334	2162.416854	2153.447924	-337.583146	-346.552076	113962.380209	120098.341048	483.798224	0.000000	0.000000	0.000000	
10.501793	2162.079659	2150.075971	-337.920341	-349.924029	114190.156817	122446.825805	486.453474	0.000000	0.000000	0.000000	
10.600474	2161.750301	2146.782396	-338.249699	-353.217604	114412.858549	124762.676120	489.055758	0.000000	0.000000	0.000000	
10.701686	2161.413348	2143.412859	-338.586652	-356.587141	114640.921032	127154.389158	491.726865	0.000000	0.000000	0.000000	
10.798507	2161.083141	2140.110793	-338.916859	-359.889207	114864.637152	129520.241235	494.352990	0.000000	0.000000	0.000000	
10.902315	2160.745591	2136.735290	-339.254409	-363.264710	115093.554071	131961.249496	497.046078	0.000000	0.000000	0.000000	
11.001604	2160.413387	2133.413250	-339.586613	-366.586750	115319.067757	134385.845051	499.704826	0.000000	0.000000	0.000000	
11.098197	2160.083713	2130.116509	-339.916287	-369.883491	115543.082257	136813.796611	502.351350	0.000000	0.000000	0.000000	
11.198280	2159.749764	2126.777019	-340.250236	-373.222981	115770.223198	139295.393367	505.040213	0.000000	0.000000	0.000000	
11.298184	2159.416595	2123.445335	-340.583405	-376.554665	115997.055489	141793.415947	507.730708	0.000000	0.000000	0.000000	
11.401914	2159.079359	2120.072975	-340.920641	-379.927025	116226.883148	144344.544101	510.461974	0.000000	0.000000	0.000000	
11.498333	2158.749938	2116.778758	-341.250062	-383.221242	116451.605009	146858.520422	513.137531	0.000000	0.000000	0.000000	
11.601374	2158.413405	2113.413434	-341.586595	-386.586566	116681.401644	149449.172841	515.878449	0.000000	0.000000	0.000000	
11.697983	2158.083842	2110.117805	-341.916158	-389.882195	116906.658784	152008.125697	518.569942	0.000000	0.000000	0.000000	
11.801489	2157.746331	2106.742687	-342.253669	-393.257313	117137.574182	154651.314044	521.333759	0.000000	0.000000	0.000000	
11.901525	2157.413402	2103.413398	-342.586598	-396.586602	117365.577324	157280.932992	524.067277	0.000000	0.000000	0.000000	
11.998258	2159.719309	2100.119245	-340.280691	-399.880755	115790.948663	159904.618545	525.067203	0.000000	0.000000	0.000000	
12.099197	2162.056548	2096.780332	-337.943452	-403.219668	114205.776789	162586.100801	526.110138	0.000000	0.000000	0.000000	
12.201616	2164.413188	2093.413704	-335.586812	-406.586296	112618.508625	165312.416359	527.191545	0.000000	0.000000	0.000000	
12.298105	2166.721325	2090.116364	-333.278675	-409.883636	111074.674924	168004.595069	528.279538	0.000000	0.000000	0.000000	
12.397559	2169.037682	2086.807284	-330.962318	-413.192716	109536.056207	170728.220756	529.399922	0.000000	0.000000	0.000000	
12.501190	2171.397734	2083.435780	-328.602266	-416.564220	107979.448960	173525.749592	530.570635	0.000000	0.000000	0.000000	
12.598270	2173.721171	2080.116584	-326.278829	-419.883416	106457.874097	176302.082815	531.751781	0.000000	0.000000	0.000000	
12.698335	2176.054937	2076.782633	-323.945063	-423.217367	104940.403713	179112.939824	532.966550	0.000000	0.000000	0.000000	
12.801873	2178.414780	2073.411428	-321.585220	-426.588572	103417.053448	181977.809525	534.223608	0.000000	0.000000	0.000000	
12.898434	2180.721825	2073.081850	-319.278175	-426.918150	101938.552765	182259.106440	533.101922	0.000000	0.000000	0.000000	
12.998168	2183.055831	2072.748421	-316.944169	-427.251579	100453.606332	182543.911700	531.975110	0.000000	0.000000	0.000000	
13.104701	2185.537767	2072.393859	-314.462233	-427.606141	98886.495833	182847.012050	530.785746	0.000000	0.000000	0.000000	
13.198221	2187.722405	2072.081768	-312.277595	-427.918232	97517.296498	183114.013569	529.746458	0.000000	0.000000	0.000000	
13.301562	2190.082413	2071.744624	-309.917587	-428.255376	96048.910954	183402.667351	528.631798	0.000000	0.000000	0.000000	
13.401482	2192.412047	2071.411819	-307.587953	-428.588181	94610.348859	183687.829087	527.539741	0.000000	0.000000	0.000000	
13.498062	2194.723867	2073.723639	-305.276133	-426.276361	93193.517203	181711.535856	524.313888	0.000000	0.000000	0.000000	
13.598185	2197.059190	2076.058962	-302.940810	-423.941038	91773.134303	179726.003770	521.055792	0.000000	0.000000	0.000000	
13.701506	2199.416563	2078.416335	-300.583437	-421.583665	90350.402405	177732.786476	517.767505	0.000000	0.000000	0.000000	
13.798213	2201.724896	2080.724668	-298.275104	-419.275332	88968.037840	175791.804420	514.548192	0.000000	0.000000	0.000000	
13.901582	2204.082823	2083.082595	-295.917177	-416.917405	87566.975755	173820.122900	511.260304	0.000000	0.000000	0.000000	
14.001325	2206.410646	2085.410418	-293.589354	-414.589582	86194.708907	171884.521829	508.014991	0.000000	0.000000	0.000000	
14.104134	2208.746508	2087.746279	-291.253492	-412.253721	84828.596888	169953.130209	504.759078	0.000000	0.000000	0.000000	
14.198444	2211.055064	2090.054836	-288.944936	-409.945164	83489.175785	168055.037274	501.541836	0.000000	0.000000	0.000000	
14.301909	2213.420491	2092.420263	-286.579509	-407.579737	82127.814761	166121.241852	498.245980	0.000000	0.000000	0.000000	
14.401766	2215.748868	2094.748640	-284.251132	-405.251360	80798.705910	164228.664739	495.002395	0.000000	0.000000	0.000000	
14.497559	2218.035195	2097.034967	-281.964805	-402.965033	79504.151192	162380.817871	491.818024	0.000000	0.000000	0.000000	
14.598308	2220.387868	2099.387640	-279.612132	-400.612360	78182.944448	160490.263253	488.541920	0.000000	0.000000	0.000000	
14.698220	2222.720766	2101.720537	-277.279234	-398.279463	76883.773851	158626.530346	485.294039	0.000000	0.000000	0.000000	
14.798390	2225.055909	2104.055681	-274.944091	-395.944319	75594.253322	156771.904103	482.043730	0.000000	0.000000	0.000000	
14.898267	2227.390363	2106.390135	-272.609637	-393.609865	74316.014021	154928.725732	478.795092	0.000000	0.000000	0.000000	
15.001813	2229.746075	2108.745847	-270.253925	-391.254153	73037.184041	153079.812473	475.517609	0.000000	0.000000	0.000000	
15.103282	2232.170004	2111.169775	-267.829996	-388.830225	71732.907011	151188.943605	472.146006	0.000000	0.000000	0.000000	
15.198492	2234.391751	2113.391523	-265.608249	-386.608477	70547.741940	149466.114633	469.056347	0.000000	0.000000	0.000000	
15.301580	2236.748031	2115.747803	-263.251969	-384.252197	69301.598958	147649.750711	465.780366	0.000000	0.000000	0.000000	
15.398103	2239.054837	2118.054609	-260.945163	-381.945391	68092.378144	145882.281920	462.573951	0.000000	0.000000	0.000000	
15.501614	2241.415054	2120.414826	-258.584946	-379.585174	66866.174105	144084.904175	459.294109	0.000000	0.000000	0.000000	
15.601700	2243.721411	2122.721183	-256.278589	-377.278817	65678.715305	142339.306078	456.089927	0.000000	0.000000	0.000000	
15.697990	2246.052407	2125.052179	-253.947593	-374.947821	64489.379831	140585.868373	452.852347	0.000000	0.000000	0.000000	
