AF-MATB V. 3.03
Programmed using MATLAB 7.5.0 and other Custom MATLAB Functions.

William Daniel Miller, Jr.
Air Force Research Laboratory
711th Human Performance Wing
Human Effectiveness Directorate
Applied Neuroscience Branch

RMS Center Coordinate (X,Y) is:	599.500000	565.500000	
Tracking Box X-Axis Lower Limit is:	449.500000	
Tracking Box X-Axis Upper Limit is:	749.500000	
Tracking Box Y-Axis Lower Limit is:	417.500000	
Tracking Box Y-Axis Upper Limit is:	717.500000	


Event Time	X Coordinates	Y Coordinates	X-Axis Difference	Y-Axis Difference	X-Axis Deviation	Y-Axis Deviation	Euclidian Distance From Target	X-Axis In Range?	y-Axis In Range?	Both In Range?
0.113545	597.194517	561.084858	-2.305483	-4.415142	5.315254	19.493483	4.980837	1.000000	1.000000	1.000000	
0.123501	594.889033	556.669715	-4.610967	-8.830285	21.261015	77.973932	9.961674	1.000000	1.000000	1.000000	
0.204146	592.583550	552.254573	-6.916450	-13.245427	47.837284	175.441348	14.942511	1.000000	1.000000	1.000000	
0.300625	590.278066	547.839430	-9.221934	-17.660570	85.044060	311.895729	19.923348	1.000000	1.000000	1.000000	
0.404324	587.972583	543.424288	-11.527417	-22.075712	132.881343	487.337076	24.904185	1.000000	1.000000	1.000000	
0.503872	585.667100	539.009145	-13.832900	-26.490855	191.349134	701.765390	29.885022	1.000000	1.000000	1.000000	
0.600911	583.361616	534.594003	-16.138384	-30.905997	260.447433	955.180670	34.865859	1.000000	1.000000	1.000000	
0.700743	581.056133	530.178860	-18.443867	-35.321140	340.176239	1247.582916	39.846696	1.000000	1.000000	1.000000	
0.803780	578.750649	525.762158	-20.749351	-39.737842	430.535552	1579.096107	44.828915	1.000000	1.000000	1.000000	
0.900604	576.445166	521.345455	-23.054834	-44.154545	531.525373	1949.623820	49.811135	1.000000	1.000000	1.000000	
1.000551	574.139683	516.930313	-25.360317	-48.569687	643.145702	2359.014515	54.791972	1.000000	1.000000	1.000000	
1.103085	571.834199	512.515170	-27.665801	-52.984830	765.396538	2807.392176	59.772809	1.000000	1.000000	1.000000	
1.200752	569.528716	509.045388	-29.971284	-56.454612	898.277881	3187.123233	63.917143	1.000000	1.000000	1.000000	
1.300564	567.223232	506.246405	-32.276768	-59.253595	1041.789732	3510.988476	67.474278	1.000000	1.000000	1.000000	
1.404202	572.001726	510.513946	-27.498274	-54.986054	756.155084	3023.466104	61.478624	1.000000	1.000000	1.000000	
1.502835	576.780219	514.993647	-22.719781	-50.506353	516.188437	2550.891675	55.381225	1.000000	1.000000	1.000000	
1.600638	581.558713	520.297028	-17.941287	-45.202972	321.889789	2043.308670	48.633306	1.000000	1.000000	1.000000	
1.700961	586.337206	526.057489	-13.162794	-39.442511	173.259141	1555.711675	41.580895	1.000000	1.000000	1.000000	
1.800987	591.115700	532.182990	-8.384300	-33.317010	70.296492	1110.023163	34.355781	1.000000	1.000000	1.000000	
1.900527	595.894193	538.430171	-3.605807	-27.069829	13.001843	732.775653	27.308927	1.000000	1.000000	1.000000	
2.000615	600.672687	544.738192	1.172687	-20.761808	1.375194	431.052684	20.794900	1.000000	1.000000	1.000000	
2.106083	605.451180	550.985373	5.951180	-14.514627	35.416544	210.674409	15.687286	1.000000	1.000000	1.000000	
2.200584	610.229674	557.232553	10.729674	-8.267447	115.125894	68.350672	13.545352	1.000000	1.000000	1.000000	
2.304017	615.008167	563.479734	15.508167	-2.020266	240.503244	4.081473	15.639204	1.000000	1.000000	1.000000	
2.404434	619.786660	569.666075	20.286660	4.166075	411.548593	17.356183	20.710016	1.000000	1.000000	1.000000	
2.500730	624.565154	575.913256	25.065154	10.413256	628.261942	108.435905	27.142178	1.000000	1.000000	1.000000	
2.599992	629.343647	582.160437	29.843647	16.660437	890.643291	277.570165	34.179138	1.000000	1.000000	1.000000	
2.699966	634.122141	588.346778	34.622141	22.846778	1198.692639	521.975266	41.480934	1.000000	1.000000	1.000000	
2.803608	638.900634	594.654799	39.400634	29.154799	1552.409987	850.002300	49.014409	1.000000	1.000000	1.000000	
2.903622	643.679128	600.901980	44.179128	35.401980	1951.795334	1253.300175	56.613563	1.000000	1.000000	1.000000	
3.000459	648.457621	607.088321	48.957621	41.588321	2396.848681	1729.588420	64.237350	1.000000	1.000000	1.000000	
3.105369	653.236115	613.335502	53.736115	47.835502	2887.570028	2288.235215	71.943069	1.000000	1.000000	1.000000	
3.203822	658.014608	619.582683	58.514608	54.082683	3423.959375	2924.936549	79.679959	1.000000	1.000000	1.000000	
3.300072	662.793102	625.829863	63.293102	60.329863	4006.016721	3639.692421	87.439746	1.000000	1.000000	1.000000	
3.400195	667.571595	632.077044	68.071595	66.577044	4633.742067	4432.502832	95.216831	1.000000	1.000000	1.000000	
3.503823	671.893009	638.385065	72.393009	72.885065	5240.747697	5312.232734	102.727700	1.000000	1.000000	1.000000	
3.600122	676.336102	644.632246	76.836102	79.132246	5903.786584	6261.912378	110.298227	1.000000	1.000000	1.000000	
3.700354	680.840036	650.818587	81.340036	85.318587	6616.201384	7279.261294	117.879017	1.000000	1.000000	1.000000	
3.804641	685.343969	657.065768	85.843969	91.565768	7369.187018	8384.289858	125.512855	1.000000	1.000000	1.000000	
3.923049	689.787062	663.312949	90.287062	97.812949	8151.753653	9567.372961	133.113210	1.000000	1.000000	1.000000	
3.999960	694.230156	669.499290	94.730156	103.999290	8973.802448	10815.852267	140.675708	1.000000	1.000000	1.000000	
4.101465	698.642049	675.685631	99.142049	110.185631	9829.145965	12140.873201	148.222870	1.000000	1.000000	1.000000	
4.204928	695.674083	682.868232	96.174083	117.368232	9249.454268	13775.301827	151.739105	1.000000	1.000000	1.000000	
4.300589	692.706117	689.167873	93.206117	123.667873	8687.380220	15293.742781	154.858397	1.000000	1.000000	1.000000	
4.403767	689.769351	695.132114	90.269351	129.632114	8148.555653	16804.484977	157.965315	1.000000	1.000000	1.000000	
4.500367	686.801384	700.760955	87.301384	135.260955	7621.531699	18295.525976	160.987756	1.000000	1.000000	1.000000	
4.612907	683.864618	704.163676	84.364618	138.663676	7117.388771	19227.615103	162.311441	1.000000	1.000000	1.000000	
4.703525	680.927852	704.203037	81.427852	138.703037	6630.495035	19238.532566	160.838514	1.000000	1.000000	1.000000	
4.800895	677.991085	702.376638	78.491085	136.876638	6160.850492	18735.214153	157.784868	1.000000	1.000000	1.000000	
4.900556	675.115159	700.091600	75.615159	134.591600	5717.652293	18114.898673	154.377948	1.000000	1.000000	1.000000	
5.004360	672.178393	697.836201	72.678393	132.336201	5282.148789	17512.870010	150.980193	1.000000	1.000000	1.000000	
5.100436	669.302467	695.488762	69.802467	129.988762	4872.384340	16897.078192	147.544781	1.000000	1.000000	1.000000	
5.200269	666.426540	693.141323	66.926540	127.641323	4479.161796	16292.307313	144.123104	1.000000	1.000000	1.000000	
5.303655	663.550614	690.856284	64.050614	125.356284	4102.481155	15714.197944	140.771727	1.000000	1.000000	1.000000	
5.400492	660.674688	688.508845	61.174688	123.008845	3742.342418	15131.175982	137.380924	1.000000	1.000000	1.000000	
5.500356	657.828401	687.568526	58.328401	122.068526	3402.202414	14900.725101	135.288313	1.000000	1.000000	1.000000	
5.639253	654.860435	689.044647	55.360435	123.544647	3064.777780	15263.279892	135.381157	1.000000	1.000000	1.000000	
5.700202	651.892469	691.224328	52.392469	125.724328	2744.970794	15806.606772	136.204176	1.000000	1.000000	1.000000	
5.803747	648.955703	694.229250	49.455703	128.729250	2445.866518	16571.219701	137.902452	1.000000	1.000000	1.000000	
5.900178	645.987736	697.326211	46.487736	131.826211	2161.109626	17378.149830	139.782901	1.000000	1.000000	1.000000	
6.000368	642.990130	700.423172	43.490130	134.923172	1891.391408	18204.262295	141.759140	1.000000	1.000000	1.000000	
6.105231	640.114204	703.459293	40.614204	137.959293	1649.513544	19032.766508	143.813351	1.000000	1.000000	1.000000	
6.204184	637.177437	706.556254	37.677437	141.056254	1419.589292	19896.866807	146.001562	1.000000	1.000000	1.000000	
6.300255	634.240671	709.653215	34.740671	144.153215	1206.914232	20780.149443	148.280355	1.000000	1.000000	1.000000	
6.400409	628.886313	708.298605	29.386313	142.798605	863.555406	20391.441557	145.790936	1.000000	1.000000	1.000000	
6.510363	623.561595	705.905035	24.061595	140.405035	578.960369	19713.573741	142.451866	1.000000	1.000000	1.000000	
6.600352	620.378757	701.430424	20.878757	135.930424	435.922510	18477.080255	137.524553	1.000000	1.000000	1.000000	
6.703826	618.787119	695.242934	19.287119	129.742934	371.992977	16833.228931	131.168677	1.000000	1.000000	1.000000	
6.800212	617.195482	687.802764	17.695482	122.302764	313.130067	14957.966021	123.576276	1.000000	1.000000	1.000000	
6.901326	615.664684	679.659033	16.164684	114.159033	261.296997	13032.284922	115.297797	1.000000	1.000000	1.000000	
7.000191	614.073046	671.484103	14.573046	105.984103	212.373661	11232.630127	106.981324	1.000000	1.000000	1.000000	
7.100239	612.542248	663.340373	13.042248	97.840373	170.100227	9572.738569	98.705819	1.000000	1.000000	1.000000	
7.203610	611.041090	655.165443	11.541090	89.665443	133.196755	8039.891599	90.405135	1.000000	1.000000	1.000000	
7.300260	609.510292	647.082552	10.010292	81.582552	100.205945	6655.712845	82.194396	1.000000	1.000000	1.000000	
7.403720	607.979494	638.938822	8.479494	73.438822	71.901819	5393.260584	73.926737	1.000000	1.000000	1.000000	
7.500150	606.387856	631.192892	6.887856	65.692892	47.442562	4315.556028	66.052998	1.000000	1.000000	1.000000	
7.600197	601.308058	627.880481	1.808058	62.380481	3.269074	3891.324470	62.406679	1.000000	1.000000	1.000000	
7.700298	596.228260	626.251311	-3.271740	60.751311	10.704281	3690.721812	60.839347	1.000000	1.000000	1.000000	
7.800647	591.148462	624.835861	-8.351538	59.335861	69.748182	3520.744390	59.920719	1.000000	1.000000	1.000000	
7.900300	586.068664	623.481251	-13.431336	57.981251	180.400776	3361.825425	59.516604	1.000000	1.000000	1.000000	
8.003898	580.988866	622.126640	-18.511134	56.626640	342.662064	3206.576397	59.575485	1.000000	1.000000	1.000000	
8.101309	575.909069	620.772030	-23.590931	55.272030	556.532046	3054.997307	60.096001	1.000000	1.000000	1.000000	
8.200255	570.829271	619.417420	-28.670729	53.917420	822.010722	2907.088156	61.066348	1.000000	1.000000	1.000000	
8.303680	565.749473	618.001969	-33.750527	52.501969	1139.098092	2756.456801	62.414381	1.000000	1.000000	1.000000	
8.400240	561.098675	616.678559	-38.401325	51.178559	1474.661778	2619.244923	63.983644	1.000000	1.000000	1.000000	
8.503871	559.201277	615.323949	-40.298723	49.823949	1623.987086	2482.425887	64.081300	1.000000	1.000000	1.000000	
8.603529	558.495719	614.000539	-41.004281	48.500539	1681.351065	2352.302249	63.511049	1.000000	1.000000	1.000000	
8.700228	558.340841	612.645928	-41.159159	47.145928	1694.076368	2222.738561	62.584462	1.000000	1.000000	1.000000	
8.800290	558.992245	611.941994	-40.507755	46.441994	1640.878175	2156.858793	61.625782	1.000000	1.000000	1.000000	
8.903604	560.072650	611.085179	-39.427350	45.585179	1554.515930	2078.008576	60.270428	1.000000	1.000000	1.000000	
9.000162	561.213894	610.228365	-38.286106	44.728365	1465.825878	2000.626621	58.876587	1.000000	1.000000	1.000000	
9.100339	562.294299	609.432390	-37.205701	43.932390	1384.264193	1930.054919	57.570123	1.000000	1.000000	1.000000	
9.203869	563.496383	608.575576	-36.003617	43.075576	1296.260409	1855.505231	56.140588	1.000000	1.000000	1.000000	
9.300201	564.576788	607.718761	-34.923212	42.218761	1219.630745	1782.423806	54.791008	1.000000	1.000000	1.000000	
9.400757	565.718032	606.922787	-33.781968	41.422787	1141.221339	1715.847265	53.451554	1.000000	1.000000	1.000000	
9.500393	566.798437	606.126812	-32.701563	40.626812	1069.392234	1650.537876	52.152949	1.000000	1.000000	1.000000	
9.603422	567.878841	605.330838	-31.621159	39.830838	999.897678	1586.495637	50.856596	1.000000	1.000000	1.000000	
9.699515	569.020086	604.534863	-30.479914	39.034863	929.025171	1523.720550	49.525203	1.000000	1.000000	1.000000	
9.804084	570.161330	603.738889	-29.338670	38.238889	860.757543	1462.212613	48.197201	1.000000	1.000000	1.000000	
9.900248	571.302575	602.942914	-28.197425	37.442914	795.094792	1401.971827	46.872877	1.000000	1.000000	1.000000	
10.004968	572.382979	602.238980	-27.117021	36.738980	735.332817	1349.752631	45.662736	1.000000	1.000000	1.000000	
10.101413	573.432184	601.566245	-26.067816	36.066245	679.531048	1300.774044	44.500619	1.000000	1.000000	1.000000	
10.203283	574.604628	600.862311	-24.895372	35.362311	619.779540	1250.493019	43.246648	1.000000	1.000000	1.000000	
10.300194	575.685033	600.097536	-23.814967	34.597536	567.152671	1196.989511	42.001693	1.000000	1.000000	1.000000	
10.408745	586.036826	599.170563	-13.463174	33.670563	181.257058	1133.706816	36.262431	1.000000	1.000000	1.000000	
10.500483	584.527831	603.177807	-14.972169	37.677807	224.165843	1419.617146	40.543594	1.000000	1.000000	1.000000	
10.599894	593.309789	606.320478	-6.190211	40.820478	38.318706	1666.311421	41.287167	1.000000	1.000000	1.000000	
10.703150	602.213428	609.463149	2.713428	43.963149	7.362691	1932.758457	44.046806	1.000000	1.000000	1.000000	
10.799707	611.117066	612.605820	11.617066	47.105820	134.956230	2218.958253	48.517157	1.000000	1.000000	1.000000	
10.903406	619.959865	615.748491	20.459865	50.248491	418.606065	2524.910809	54.254188	1.000000	1.000000	1.000000	
11.003241	628.863503	618.891162	29.363503	53.391162	862.215318	2850.616127	60.933008	1.000000	1.000000	1.000000	
11.099929	637.706302	622.033832	38.206302	56.533832	1459.721481	3196.074204	68.233391	1.000000	1.000000	1.000000	
11.199816	646.609940	625.176503	47.109940	59.676503	2219.346448	3561.285043	76.030464	1.000000	1.000000	1.000000	
11.338729	655.360698	628.319174	55.860698	62.819174	3120.417630	3946.248641	84.063466	1.000000	1.000000	1.000000	
11.399844	661.328417	631.461845	61.828417	65.961845	3822.753131	4350.965001	90.408618	1.000000	1.000000	1.000000	
11.500150	664.146495	633.900956	64.646495	68.400956	4179.169353	4678.690771	94.116205	1.000000	1.000000	1.000000	
11.600892	667.025414	633.923627	67.525414	68.423627	4559.681497	4681.792705	96.132587	1.000000	1.000000	1.000000	
11.699862	669.904332	633.119498	70.404332	67.619498	4956.769983	4572.396468	97.617450	1.000000	1.000000	1.000000	
11.803429	672.783251	632.224889	73.283251	66.724889	5370.434812	4452.210755	99.109261	1.000000	1.000000	1.000000	
11.902650	675.693369	631.391119	76.193369	65.891119	5805.429477	4341.639624	100.732662	1.000000	1.000000	1.000000	
12.000010	678.572287	630.557350	79.072287	65.057350	6252.426635	4232.458834	102.395730	1.000000	1.000000	1.000000	
12.106006	681.451206	629.723581	81.951206	64.223581	6716.000137	4124.668386	104.118531	1.000000	1.000000	1.000000	
12.203173	684.269284	628.889812	84.769284	63.389812	7185.831553	4018.268280	105.849421	1.000000	1.000000	1.000000	
12.342236	688.459522	627.464306	88.959522	61.964306	7913.796636	3839.575184	108.412969	1.000000	1.000000	1.000000	
12.399793	691.461041	626.038799	91.961041	60.538799	8456.833001	3664.946226	110.098952	1.000000	1.000000	1.000000	
12.499637	694.401719	624.613293	94.901719	59.113293	9006.336246	3494.381404	111.806608	1.000000	1.000000	1.000000	
12.603508	697.342397	623.187787	97.842397	57.687787	9573.134667	3327.880719	113.582637	1.000000	1.000000	1.000000	
12.699624	700.343915	621.762280	100.843915	56.262280	10169.495251	3165.444171	115.477008	1.000000	1.000000	1.000000	
12.803280	703.345433	620.336774	103.845433	54.836774	10783.874058	3007.071760	117.434858	1.000000	1.000000	1.000000	
12.899677	706.286112	618.911267	106.786112	53.411267	11403.273653	2852.763486	119.398648	1.000000	1.000000	1.000000	
13.003244	709.044270	617.485761	109.544270	51.985761	11999.947071	2702.519349	121.253727	1.000000	1.000000	1.000000	
13.136782	707.749548	616.060255	108.249548	50.560255	11717.964668	2556.339349	119.475119	1.000000	1.000000	1.000000	
13.199949	706.393986	614.634748	106.893986	49.134748	11426.324313	2414.223486	117.645858	1.000000	1.000000	1.000000	
13.300316	705.038425	613.148402	105.538425	47.648402	11138.359053	2270.370201	115.796068	1.000000	1.000000	1.000000	
13.403238	703.835743	611.722895	104.335743	46.222895	10885.947214	2136.556067	114.116183	1.000000	1.000000	1.000000	
13.499803	705.313141	610.511109	105.813141	45.011109	11196.420798	2025.999942	114.988785	1.000000	1.000000	1.000000	
13.599855	706.882579	609.850003	107.382579	44.350003	11531.018306	1966.922740	116.180640	1.000000	1.000000	1.000000	
13.699812	708.452017	609.341776	108.952017	43.841776	11870.542088	1922.101351	117.442085	1.000000	1.000000	1.000000	
13.803298	710.021456	609.170510	110.521456	43.670510	12214.992142	1907.113438	118.836466	1.000000	1.000000	1.000000	
13.902832	711.651734	609.212964	112.151734	43.712964	12578.011390	1910.823183	120.369575	1.000000	1.000000	1.000000	
14.003591	713.282012	609.437937	113.782012	43.937937	12946.346252	1930.542323	121.970851	1.000000	1.000000	1.000000	
14.101295	714.912290	609.725311	115.412290	44.225311	13319.996728	1955.878114	123.595610	1.000000	1.000000	1.000000	
14.199983	716.542568	610.012684	117.042568	44.512684	13698.962818	1981.379072	125.221172	1.000000	1.000000	1.000000	
14.303415	718.143207	610.482578	118.643207	44.982578	14076.210474	2023.432324	126.884368	1.000000	1.000000	1.000000	
14.399839	719.712645	610.952472	120.212645	45.452472	14451.079974	2065.927177	128.518509	1.000000	1.000000	1.000000	
14.500922	721.342923	611.514405	121.842923	46.014405	14845.697891	2117.325490	130.242172	1.000000	1.000000	1.000000	
14.602742	723.734481	612.076339	124.234481	46.576339	15434.206327	2169.355341	132.678414	1.000000	1.000000	1.000000	
14.702731	727.010559	612.638272	127.510559	47.138272	16258.942768	2222.016731	135.944693	1.000000	1.000000	1.000000	
14.799543	726.230328	614.890757	126.730328	49.390757	16060.575954	2439.446866	136.014789	1.000000	1.000000	1.000000	
14.900066	726.824456	617.356961	127.324456	51.856961	16211.517075	2689.144436	137.479677	1.000000	1.000000	1.000000	
15.004436	728.702464	619.823166	129.202464	54.323166	16693.276745	2951.006334	140.158065	1.000000	1.000000	1.000000	
15.099285	730.549272	622.289370	131.049272	56.789370	17173.911797	3225.032561	142.824873	1.000000	1.000000	1.000000	
15.202898	732.427281	624.755575	132.927281	59.255575	17669.661938	3511.223116	145.536542	1.000000	1.000000	1.000000	
15.299576	734.274089	627.221779	134.774089	61.721779	18164.055034	3809.578000	148.235060	1.000000	1.000000	1.000000	
15.404303	736.120897	629.687983	136.620897	64.187983	18665.269530	4120.097212	150.948225	1.000000	1.000000	1.000000	
15.504170	737.967705	632.154188	138.467705	66.654188	19173.305428	4442.780752	153.675262	1.000000	1.000000	1.000000	
15.711310	739.753674	634.681232	140.253674	69.181232	19671.092959	4786.042892	156.387774	1.000000	1.000000	1.000000	
15.716719	741.539642	637.208277	142.039642	71.708277	20175.259855	5142.076939	159.114226	1.000000	1.000000	1.000000	
15.804166	743.417650	639.644841	143.917650	74.144841	20712.290005	5497.457456	161.894248	1.000000	1.000000	1.000000	
15.899829	745.203618	642.111045	145.703618	76.611045	21229.544392	5869.252290	164.617121	1.000000	1.000000	1.000000	
16.004089	746.989587	644.577250	147.489587	79.077250	21753.178145	6253.211451	167.351097	1.000000	1.000000	1.000000	
16.106786	748.836395	647.104294	149.336395	81.604294	22301.358813	6659.260851	170.178200	1.000000	1.000000	1.000000	
16.200597	750.683203	649.570499	151.183203	84.070499	22856.360883	7067.848757	172.986154	0.000000	1.000000	0.000000	
16.300570	752.255451	652.097543	152.755451	86.597543	23334.227897	7499.134480	175.594312	0.000000	1.000000	0.000000	
16.404015	752.389380	654.534108	152.889380	89.034108	23375.162372	7927.072310	176.924376	0.000000	1.000000	0.000000	
16.500376	752.523308	656.970672	153.023308	91.470672	23416.132720	8366.883834	178.277919	0.000000	1.000000	0.000000	
16.607258	757.793484	656.598590	158.293484	91.098590	25056.826929	8298.953077	182.635648	0.000000	1.000000	0.000000	
