AF-MATB V. 3.03
Programmed using MATLAB 7.5.0 and other Custom MATLAB Functions.

William Daniel Miller, Jr.
Air Force Research Laboratory
711th Human Performance Wing
Human Effectiveness Directorate
Applied Neuroscience Branch

RMS Target Value is:	2500.000000	
Main Tank Automation Lower Limit is:	2350.000000	
Main Tank Automation Upper Limit is:	2650.000000	


Event Time	Tank A Value	Tank B Value	Tank A Difference	Tank B Difference	Tank A Deviation	Tank B Deviation	Euclidian Distance From Target	Tank A In Range?	Tank B In Range?	Both In Range?
0.099671	2499.568016	2499.568016	-0.431984	-0.431984	0.186610	0.186610	0.610917	1.000000	1.000000	1.000000	
0.111462	2496.397984	2496.397984	-3.602016	-3.602016	12.974523	12.974523	5.094021	1.000000	1.000000	1.000000	
0.203803	2493.341293	2493.341293	-6.658707	-6.658707	44.338380	44.338380	9.416834	1.000000	1.000000	1.000000	
0.300851	2490.033838	2490.033838	-9.966162	-9.966162	99.324385	99.324385	14.094281	1.000000	1.000000	1.000000	
0.404006	2486.671337	2486.671337	-13.328663	-13.328663	177.653251	177.653251	18.849576	1.000000	1.000000	1.000000	
0.500560	2483.372244	2483.372244	-16.627756	-16.627756	276.482272	276.482272	23.515198	1.000000	1.000000	1.000000	
0.603690	2480.004953	2480.004953	-19.995047	-19.995047	399.801911	399.801911	28.277267	1.000000	1.000000	1.000000	
0.703493	2476.676177	2476.676177	-23.323823	-23.323823	544.000732	544.000732	32.984867	1.000000	1.000000	1.000000	
0.800263	2473.377041	2473.377041	-26.622959	-26.622959	708.781964	708.781964	37.650550	1.000000	1.000000	1.000000	
0.903596	2470.004681	2470.004681	-29.995319	-29.995319	899.719147	899.719147	42.419787	1.000000	1.000000	1.000000	
1.003612	2466.674451	2466.674451	-33.325549	-33.325549	1110.592221	1110.592221	47.129443	1.000000	1.000000	1.000000	
1.104012	2463.338169	2463.338169	-36.661831	-36.661831	1344.089885	1344.089885	51.847659	1.000000	1.000000	1.000000	
1.200508	2460.040701	2460.040701	-39.959299	-39.959299	1596.745612	1596.745612	56.510983	1.000000	1.000000	1.000000	
1.303877	2456.670587	2456.670587	-43.329413	-43.329413	1877.438066	1877.438066	61.277044	1.000000	1.000000	1.000000	
1.400358	2453.376840	2453.376840	-46.623160	-46.623160	2173.719081	2173.719081	65.935106	1.000000	1.000000	1.000000	
1.503927	2450.003112	2450.003112	-49.996888	-49.996888	2499.688853	2499.688853	70.706278	1.000000	1.000000	1.000000	
1.603916	2446.673416	2446.673416	-53.326584	-53.326584	2843.724574	2843.724574	75.415179	1.000000	1.000000	1.000000	
1.703026	2443.376461	2443.376461	-56.623539	-56.623539	3206.225155	3206.225155	80.077777	1.000000	1.000000	1.000000	
1.800466	2440.041911	2440.041911	-59.958089	-59.958089	3594.972440	3594.972440	84.793543	1.000000	1.000000	1.000000	
1.903954	2436.672460	2436.672460	-63.327540	-63.327540	4010.377329	4010.377329	89.558666	1.000000	1.000000	1.000000	
2.003940	2433.341396	2433.341396	-66.658604	-66.658604	4443.369540	4443.369540	94.269502	1.000000	1.000000	1.000000	
2.106487	2430.039116	2430.039116	-69.960884	-69.960884	4894.525303	4894.525303	98.939631	1.000000	1.000000	1.000000	
2.203704	2426.676038	2426.676038	-73.323962	-73.323962	5376.403445	5376.403445	103.695742	1.000000	1.000000	1.000000	
2.303694	2423.339349	2423.339349	-76.660651	-76.660651	5876.855408	5876.855408	108.414532	1.000000	1.000000	1.000000	
2.400234	2420.044747	2420.044747	-79.955253	-79.955253	6392.842536	6392.842536	113.073804	1.000000	1.000000	1.000000	
2.503837	2416.671297	2416.671297	-83.328703	-83.328703	6943.672812	6943.672812	117.844582	1.000000	1.000000	1.000000	
2.602490	2413.379047	2413.379047	-86.620953	-86.620953	7503.189566	7503.189566	122.500527	1.000000	1.000000	1.000000	
2.704249	2410.003993	2410.003993	-89.996007	-89.996007	8099.281341	8099.281341	127.273574	1.000000	1.000000	1.000000	
2.837651	2406.676093	2406.676093	-93.323907	-93.323907	8709.351558	8709.351558	131.979935	1.000000	1.000000	1.000000	
2.900611	2403.371055	2403.371055	-96.628945	-96.628945	9337.153028	9337.153028	136.653965	1.000000	1.000000	1.000000	
3.000797	2400.034152	2400.034152	-99.965848	-99.965848	9993.170692	9993.170692	141.373057	1.000000	1.000000	1.000000	
3.103708	2396.674517	2396.674517	-103.325483	-103.325483	10676.155392	10676.155392	146.124299	1.000000	1.000000	1.000000	
3.200187	2393.378974	2393.378974	-106.621026	-106.621026	11368.043206	11368.043206	150.784901	1.000000	1.000000	1.000000	
3.303772	2390.005567	2390.005567	-109.994433	-109.994433	12098.775379	12098.775379	155.555619	1.000000	1.000000	1.000000	
3.403615	2386.677710	2386.677710	-113.322290	-113.322290	12841.941399	12841.941399	160.261919	1.000000	1.000000	1.000000	
3.500408	2383.376799	2383.376799	-116.623201	-116.623201	13600.971008	13600.971008	164.930113	1.000000	1.000000	1.000000	
3.604157	2380.005188	2380.005188	-119.994812	-119.994812	14398.754888	14398.754888	169.698290	1.000000	1.000000	1.000000	
3.703891	2376.671194	2376.671194	-123.328806	-123.328806	15209.994404	15209.994404	174.413270	1.000000	1.000000	1.000000	
3.800692	2373.371587	2373.371587	-126.628413	-126.628413	16034.754875	16034.754875	179.079618	1.000000	1.000000	1.000000	
4.015760	2370.001751	2370.001751	-129.998249	-129.998249	16899.544624	16899.544624	183.845286	1.000000	1.000000	1.000000	
4.022168	2366.061547	2366.061547	-133.938453	-133.938453	17939.509084	17939.509084	189.417576	1.000000	1.000000	1.000000	
4.102933	2363.333849	2363.333849	-136.666151	-136.666151	18677.636906	18677.636906	193.275125	1.000000	1.000000	1.000000	
4.201667	2360.003768	2360.003768	-139.996232	-139.996232	19598.944948	19598.944948	197.984570	1.000000	1.000000	1.000000	
4.301405	2356.675676	2356.675676	-143.324324	-143.324324	20541.861762	20541.861762	202.691202	1.000000	1.000000	1.000000	
4.404756	2353.306375	2353.306375	-146.693625	-146.693625	21519.019619	21519.019619	207.456114	1.000000	1.000000	1.000000	
4.501292	2350.010490	2350.010490	-149.989510	-149.989510	22496.853259	22496.853259	212.117200	1.000000	1.000000	1.000000	
4.604729	2346.638237	2346.638237	-153.361763	-153.361763	23519.830347	23519.830347	216.886285	0.000000	0.000000	0.000000	
4.701122	2343.348724	2343.348724	-156.651276	-156.651276	24539.622161	24539.622161	221.538359	0.000000	0.000000	0.000000	
4.804748	2339.971639	2339.971639	-160.028361	-160.028361	25609.076396	25609.076396	226.314279	0.000000	0.000000	0.000000	
4.904546	2336.644467	2336.644467	-163.355533	-163.355533	26685.030306	26685.030306	231.019611	0.000000	0.000000	0.000000	
5.000625	2333.370330	2333.370330	-166.629670	-166.629670	27765.446940	27765.446940	235.649939	0.000000	0.000000	0.000000	
5.105326	2329.966427	2329.966427	-170.033573	-170.033573	28911.415889	28911.415889	240.463785	0.000000	0.000000	0.000000	
5.201457	2326.669558	2326.669558	-173.330442	-173.330442	30043.442137	30043.442137	245.126262	0.000000	0.000000	0.000000	
5.304877	2323.300107	2323.300107	-176.699893	-176.699893	31222.852205	31222.852205	249.891385	0.000000	0.000000	0.000000	
5.400245	2322.649950	2320.049323	-177.350050	-179.950677	31453.040170	32382.246109	252.656459	0.000000	0.000000	0.000000	
5.503777	2321.974589	2316.672516	-178.025411	-183.327484	31693.047079	33608.966553	255.542587	0.000000	0.000000	0.000000	
5.604399	2321.306708	2313.333111	-178.693292	-186.666889	31931.292697	34844.527477	258.410178	0.000000	0.000000	0.000000	
5.700559	2320.649562	2310.047383	-179.350438	-189.952617	32166.579520	36081.996525	261.244284	0.000000	0.000000	0.000000	
5.803846	2319.975125	2306.675195	-180.024875	-193.324805	32408.955768	37374.480176	264.165546	0.000000	0.000000	0.000000	
5.900320	2319.315699	2303.378069	-180.684301	-196.621931	32646.816476	38660.183631	267.033706	0.000000	0.000000	0.000000	
6.004202	2318.640368	2300.001411	-181.359632	-199.998589	32891.316175	39999.435429	269.982873	0.000000	0.000000	0.000000	
6.106734	2317.974805	2296.673598	-182.025195	-203.326402	33133.171582	41341.625892	272.900710	0.000000	0.000000	0.000000	
6.200491	2317.315341	2293.376279	-182.684659	-206.623721	33373.684477	42693.361935	275.802550	0.000000	0.000000	0.000000	
6.300929	2316.648675	2292.709613	-183.351325	-207.290387	33617.708310	42969.304496	276.743587	0.000000	0.000000	0.000000	
6.403788	2315.974477	2292.035415	-184.025523	-207.964585	33865.393102	43249.268631	277.695268	0.000000	0.000000	0.000000	
6.500451	2315.315753	2291.376691	-184.684247	-208.623309	34108.270975	43523.684961	278.625117	0.000000	0.000000	0.000000	
6.603594	2314.642090	2290.703028	-185.357910	-209.296972	34357.554877	43805.222608	279.576067	0.000000	0.000000	0.000000	
6.714824	2313.974705	2290.035643	-186.025295	-209.964357	34605.410378	44085.031241	280.518166	0.000000	0.000000	0.000000	
6.800640	2313.314514	2289.375452	-186.685486	-210.624548	34851.470592	44362.700150	281.450121	0.000000	0.000000	0.000000	
6.900443	2312.647720	2288.708658	-187.352280	-211.291342	35100.876936	44644.031367	282.391410	0.000000	0.000000	0.000000	
7.003691	2311.975207	2288.036145	-188.024793	-211.963855	35353.322894	44928.675984	283.340782	0.000000	0.000000	0.000000	
7.100898	2311.314421	2287.375359	-188.685579	-212.624641	35602.247560	45209.237810	284.273610	0.000000	0.000000	0.000000	
7.203727	2310.642174	2286.703112	-189.357826	-213.296888	35856.386411	45495.562625	285.222631	0.000000	0.000000	0.000000	
7.303753	2309.975670	2286.036608	-190.024330	-213.963392	36109.246026	45780.333187	286.163553	0.000000	0.000000	0.000000	
7.400237	2309.315856	2285.376793	-190.684144	-214.623207	36360.442952	46063.120788	287.095043	0.000000	0.000000	0.000000	
7.503975	2308.640896	2284.701834	-191.359104	-215.298166	36618.306660	46353.300290	288.047925	0.000000	0.000000	0.000000	
7.610800	2307.974944	2284.035882	-192.025056	-215.964118	36873.622096	46640.500257	288.988101	0.000000	0.000000	0.000000	
7.700572	2307.315780	2283.376718	-192.684220	-216.623282	37127.208703	46925.646413	289.918704	0.000000	0.000000	0.000000	
7.800386	2309.652061	2282.709209	-190.347939	-217.290791	36232.337995	47215.287884	288.873027	0.000000	0.000000	0.000000	
7.903708	2312.006470	2282.036521	-187.993530	-217.963479	35341.567353	47508.078360	287.836144	0.000000	0.000000	0.000000	
8.000491	2314.317033	2284.347083	-185.682967	-215.652917	34478.164310	46506.180413	284.577485	0.000000	0.000000	0.000000	
8.105901	2316.675858	2286.705909	-183.324142	-213.294091	33607.741010	45494.369364	281.250974	0.000000	0.000000	0.000000	
8.203774	2319.010043	2289.040094	-180.989957	-210.959906	32757.364465	44504.082000	277.959433	0.000000	0.000000	0.000000	
8.300426	2321.314663	2291.344714	-178.685337	-208.655286	31928.449628	43537.028480	274.709807	0.000000	0.000000	0.000000	
8.403752	2323.675988	2293.706039	-176.324012	-206.293961	31090.157096	42557.198353	271.380463	0.000000	0.000000	0.000000	
8.503757	2326.007928	2296.037979	-173.992072	-203.962021	30273.241130	41600.506160	268.092796	0.000000	0.000000	0.000000	
8.601462	2328.326350	2298.356401	-171.673650	-201.643599	29471.842120	40660.141172	264.824439	0.000000	0.000000	0.000000	
8.700313	2330.648469	2300.678520	-169.351531	-199.321480	28679.940895	39729.052339	261.551129	0.000000	0.000000	0.000000	
8.803571	2333.010468	2303.040519	-166.989532	-196.959481	27885.503687	38793.037157	258.221883	0.000000	0.000000	0.000000	
8.900266	2335.314549	2305.344600	-164.685451	-194.655400	27121.297667	37890.724757	254.974553	0.000000	0.000000	0.000000	
9.003592	2337.676054	2307.706105	-162.323946	-192.293895	26349.063385	36976.942113	251.646588	0.000000	0.000000	0.000000	
9.103745	2340.008847	2310.038898	-159.991153	-189.961102	25597.169003	36085.220359	248.359396	0.000000	0.000000	0.000000	
9.200142	2342.313497	2312.343548	-157.686503	-187.656452	24865.033246	35214.944124	245.112173	0.000000	0.000000	0.000000	
9.303676	2344.675795	2314.705846	-155.324205	-185.294154	24125.608594	34333.923554	241.784061	0.000000	0.000000	0.000000	
9.403920	2347.008618	2317.038669	-152.991382	-182.961331	23406.362944	33474.848737	238.497823	0.000000	0.000000	0.000000	
9.500809	2349.319690	2319.349741	-150.680310	-180.650259	22704.555845	32634.516227	235.242581	0.000000	0.000000	0.000000	
9.604245	2351.740041	2321.770091	-148.259959	-178.229909	21981.015502	31765.900297	231.833811	1.000000	0.000000	0.000000	
9.756671	2355.293870	2325.323920	-144.706130	-174.676080	20939.864146	30511.732796	226.829445	1.000000	0.000000	0.000000	
9.806458	2356.459622	2326.489673	-143.540378	-173.510327	20603.839982	30105.833530	225.188085	1.000000	0.000000	0.000000	
9.900924	2358.662867	2328.692918	-141.337133	-171.307082	19976.185066	29346.116339	222.086248	1.000000	0.000000	0.000000	
10.003663	2361.007307	2331.037357	-138.992693	-168.962643	19318.968784	28548.374598	218.786068	1.000000	0.000000	0.000000	
10.106583	2363.339606	2333.369656	-136.660394	-166.630344	18676.063384	27765.671437	215.503445	1.000000	0.000000	0.000000	
10.200532	2365.651411	2335.681462	-134.348589	-164.318538	18049.543362	27000.582036	212.250148	1.000000	0.000000	0.000000	
10.303663	2368.007497	2338.037548	-131.992503	-161.962452	17422.020890	26231.836018	208.935054	1.000000	0.000000	0.000000	
10.400210	2370.313045	2340.343096	-129.686955	-159.656904	16818.706334	25490.327147	205.691598	1.000000	0.000000	0.000000	
10.503433	2372.672229	2342.702280	-127.327771	-157.297720	16212.361161	24742.572691	202.373254	1.000000	0.000000	0.000000	
10.603676	2375.007956	2345.038007	-124.992044	-154.961993	15623.010960	24013.219251	199.088498	1.000000	0.000000	0.000000	
10.700592	2377.318265	2347.348315	-122.681735	-152.651685	15050.808151	23302.536791	195.840100	1.000000	0.000000	0.000000	
10.803436	2379.672165	2349.702216	-120.327835	-150.297784	14478.787864	22589.423962	192.531067	1.000000	0.000000	0.000000	
10.903516	2382.005991	2352.036042	-117.994009	-147.963958	13922.586187	21893.333000	189.250942	1.000000	1.000000	1.000000	
11.000173	2384.314009	2354.344060	-115.685991	-145.655940	13383.248535	21215.652982	186.007800	1.000000	1.000000	1.000000	
11.103727	2386.675214	2356.705265	-113.324786	-143.294735	12842.507035	20533.381065	182.690690	1.000000	1.000000	1.000000	
11.203466	2389.006211	2359.036262	-110.993789	-140.963738	12319.621210	19870.775542	179.416824	1.000000	1.000000	1.000000	
11.322895	2391.313480	2361.343531	-108.686520	-138.656469	11812.759526	19225.616356	176.177115	1.000000	1.000000	1.000000	
11.399001	2393.620660	2363.650711	-106.379340	-136.349289	11316.563937	18591.128649	172.938407	1.000000	1.000000	1.000000	
11.504146	2396.011326	2366.041377	-103.988674	-133.958623	10813.644300	17944.912740	169.583481	1.000000	1.000000	1.000000	
11.600102	2398.312428	2368.342479	-101.687572	-131.657521	10340.362278	17333.702897	166.355238	1.000000	1.000000	1.000000	
11.701872	2400.658634	2370.688685	-99.341366	-129.311315	9868.707017	16721.416297	163.064783	1.000000	1.000000	1.000000	
11.805453	2403.001726	2373.031777	-96.998274	-126.968223	9408.665157	16120.929735	159.779833	1.000000	1.000000	1.000000	
11.900420	2405.316136	2375.346187	-94.683864	-124.653813	8965.034082	15538.573152	156.536281	1.000000	1.000000	1.000000	
12.003786	2407.674946	2377.704997	-92.325054	-122.295003	8523.915518	14956.067737	153.231796	1.000000	1.000000	1.000000	
12.106281	2410.002141	2380.032191	-89.997859	-119.967809	8099.614684	14392.275116	149.972964	1.000000	1.000000	1.000000	
12.200266	2412.316835	2382.346886	-87.683165	-117.653114	7688.337390	13842.255267	146.733066	1.000000	1.000000	1.000000	
12.304333	2414.681529	2384.711579	-85.318471	-115.288421	7279.241560	13291.419952	143.424759	1.000000	1.000000	1.000000	
12.401607	2416.990175	2387.020226	-83.009825	-112.979774	6890.630986	12764.429326	140.196506	1.000000	1.000000	1.000000	
12.503567	2419.339420	2389.369471	-80.660580	-110.630529	6506.129162	12239.114016	136.913269	1.000000	1.000000	1.000000	
12.621686	2421.649878	2391.679929	-78.350122	-108.320071	6138.741600	11733.237829	133.686123	1.000000	1.000000	1.000000	
12.700290	2423.981743	2394.011794	-76.018257	-105.988206	5778.775410	11233.499900	130.431113	1.000000	1.000000	1.000000	
12.812334	2426.339910	2396.369960	-73.660090	-103.630040	5425.808927	10739.185149	127.141630	1.000000	1.000000	1.000000	
12.900135	2428.646640	2398.676691	-71.353360	-101.323309	5091.301960	10266.412982	123.926248	1.000000	1.000000	1.000000	
13.006104	2431.012486	2401.042537	-68.987514	-98.957463	4759.277053	9792.579500	120.631076	1.000000	1.000000	1.000000	
13.100210	2433.312406	2403.342456	-66.687594	-96.657544	4447.235240	9342.680751	117.430473	1.000000	1.000000	1.000000	
13.203707	2435.674794	2405.704844	-64.325206	-94.295156	4137.732161	8891.576370	114.145997	1.000000	1.000000	1.000000	
13.304047	2438.009188	2408.039239	-61.990812	-91.960761	3842.860720	8456.781548	110.903752	1.000000	1.000000	1.000000	
13.400419	2440.314751	2410.344802	-59.685249	-89.655198	3562.328900	8038.054516	107.705076	1.000000	1.000000	1.000000	
13.544837	2442.675687	2412.705738	-57.324313	-87.294262	3286.076812	7620.288162	104.433543	1.000000	1.000000	1.000000	
13.602326	2444.984499	2415.014550	-55.015501	-84.985450	3026.705367	7222.526795	101.238492	1.000000	1.000000	1.000000	
13.703504	2447.338100	2417.368150	-52.661900	-82.631850	2773.275744	6828.022575	97.986215	1.000000	1.000000	1.000000	
13.800666	2449.654186	2419.684237	-50.345814	-80.315763	2534.700947	6450.621776	94.790942	1.000000	1.000000	1.000000	
13.903566	2452.008820	2422.038871	-47.991180	-77.961129	2303.153342	6077.937662	91.548299	1.000000	1.000000	1.000000	
14.000252	2454.315132	2424.345182	-45.684868	-75.654818	2087.107197	5723.651441	88.378496	1.000000	1.000000	1.000000	
14.106192	2456.672714	2426.702765	-43.327286	-73.297235	1877.253674	5372.484644	85.145395	1.000000	1.000000	1.000000	
14.203438	2459.006031	2429.036082	-40.993969	-70.963918	1680.505469	5035.877662	81.953543	1.000000	1.000000	1.000000	
14.303522	2461.337806	2431.367857	-38.662194	-68.632143	1494.765223	4710.371059	78.772687	1.000000	1.000000	1.000000	
14.400289	2463.645076	2433.675126	-36.354924	-66.324874	1321.680512	4398.988846	75.635107	1.000000	1.000000	1.000000	
14.500333	2465.978288	2436.008339	-34.021712	-63.991661	1157.476894	4094.932733	72.473510	1.000000	1.000000	1.000000	
14.652526	2469.532431	2439.562482	-30.467569	-60.437518	928.272750	3652.693602	67.682836	1.000000	1.000000	1.000000	
14.702835	2470.702435	2440.732486	-29.297565	-59.267514	858.347295	3512.638215	66.113429	1.000000	1.000000	1.000000	
14.803747	2473.004765	2443.034816	-26.995235	-56.965184	728.742720	3245.032242	63.037885	1.000000	1.000000	1.000000	
14.899702	2475.295388	2445.325439	-24.704612	-54.674561	610.317851	2989.307651	59.996879	1.000000	1.000000	1.000000	
15.004312	2477.676863	2447.706913	-22.323137	-52.293087	498.322466	2734.566926	56.858503	1.000000	1.000000	1.000000	
15.104186	2480.012036	2450.042086	-19.987964	-49.957914	399.518718	2495.793139	53.808102	1.000000	1.000000	1.000000	
15.200098	2482.313168	2452.343218	-17.686832	-47.656782	312.824040	2271.168844	50.832990	1.000000	1.000000	1.000000	
15.303616	2484.674059	2454.704109	-15.325941	-45.295891	234.884476	2051.717707	47.818429	1.000000	1.000000	1.000000	
15.404105	2487.010684	2457.040735	-12.989316	-42.959265	168.722333	1845.498487	44.880072	1.000000	1.000000	1.000000	
15.500238	2489.318013	2459.348064	-10.681987	-40.651936	114.104840	1652.579903	42.031949	1.000000	1.000000	1.000000	
15.601261	2491.655656	2461.685707	-8.344344	-38.314293	69.628070	1467.985041	39.212410	1.000000	1.000000	1.000000	
15.703780	2494.004108	2464.034158	-5.995892	-35.965842	35.950725	1293.541765	36.462206	1.000000	1.000000	1.000000	
15.803353	2496.337365	2466.367415	-3.662635	-33.632585	13.414897	1131.150751	33.831430	1.000000	1.000000	1.000000	
15.900128	2498.645967	2468.676017	-1.354033	-31.323983	1.833407	981.191899	31.353234	1.000000	1.000000	1.000000	
