AF-MATB V. 3.03
Programmed using MATLAB 7.5.0 and other Custom MATLAB Functions.

William Daniel Miller, Jr.
Air Force Research Laboratory
711th Human Performance Wing
Human Effectiveness Directorate
Applied Neuroscience Branch

RMS Center Coordinate (X,Y) is:	599.500000	565.500000	
Tracking Box X-Axis Lower Limit is:	449.500000	
Tracking Box X-Axis Upper Limit is:	749.500000	
Tracking Box Y-Axis Lower Limit is:	417.500000	
Tracking Box Y-Axis Upper Limit is:	717.500000	


Event Time	X Coordinates	Y Coordinates	X-Axis Difference	Y-Axis Difference	X-Axis Deviation	Y-Axis Deviation	Euclidian Distance From Target	X-Axis In Range?	y-Axis In Range?	Both In Range?
0.101613	593.332001	563.266023	-6.167999	-2.233977	38.044218	4.990652	6.560097	1.000000	1.000000	1.000000	
0.109125	587.195201	560.971207	-12.304799	-4.528793	151.408078	20.509970	13.111752	1.000000	1.000000	1.000000	
0.202914	580.875882	558.737230	-18.624118	-6.762770	346.857788	45.735060	19.813956	1.000000	1.000000	1.000000	
0.299396	574.707882	556.442413	-24.792118	-9.057587	614.649112	82.039879	26.394867	1.000000	1.000000	1.000000	
0.402936	568.539883	554.147596	-30.960117	-11.352404	958.528871	128.877066	32.975839	1.000000	1.000000	1.000000	
0.499671	562.371883	551.913620	-37.128117	-13.586380	1378.497066	184.589729	39.535892	1.000000	1.000000	1.000000	
0.599469	556.143044	549.556403	-43.356956	-15.943597	1879.825669	254.198284	46.195497	1.000000	1.000000	1.000000	
0.702789	549.975044	546.834146	-49.524956	-18.665854	2452.721256	348.414094	52.925753	1.000000	1.000000	1.000000	
0.799356	543.838245	542.249250	-55.661755	-23.250750	3098.231012	540.597394	60.322702	1.000000	1.000000	1.000000	
0.899370	537.670245	534.483513	-61.829755	-31.016487	3822.918587	962.022472	69.173268	1.000000	1.000000	1.000000	
1.002743	531.502246	525.493176	-67.997754	-40.006824	4623.694597	1600.545951	78.893856	1.000000	1.000000	1.000000	
1.103525	525.365446	516.349959	-74.134554	-49.150041	5495.932073	2415.726483	88.947504	1.000000	1.000000	1.000000	
1.199417	519.197447	507.269143	-80.302553	-58.230857	6448.500071	3390.832734	99.193411	1.000000	1.000000	1.000000	
1.302747	513.060647	498.554926	-86.439353	-66.945074	7471.761715	4481.642925	109.331627	1.000000	1.000000	1.000000	
1.399733	506.892648	493.633069	-92.607352	-71.866931	8576.121700	5164.855721	117.221915	1.000000	1.000000	1.000000	
1.499554	501.028848	491.093333	-98.471152	-74.406667	9696.567734	5536.352148	123.421716	1.000000	1.000000	1.000000	
1.601291	498.342769	492.179036	-101.157231	-73.320964	10232.785439	5375.963772	124.934980	1.000000	1.000000	1.000000	
1.700486	497.308729	498.993059	-102.191271	-66.506941	10443.055820	4423.173172	121.927146	1.000000	1.000000	1.000000	
1.799379	499.975010	507.878763	-99.524990	-57.621237	9905.223684	3320.207010	115.001873	1.000000	1.000000	1.000000	
1.902933	502.823810	516.948546	-96.676190	-48.551454	9346.285661	2357.243705	108.182852	1.000000	1.000000	1.000000	
1.999365	507.477531	525.957489	-92.022469	-39.542511	8468.134841	1563.610169	100.158599	1.000000	1.000000	1.000000	
2.112325	513.263811	534.843192	-86.236189	-30.656808	7436.680243	939.839853	91.523331	1.000000	1.000000	1.000000	
2.199608	519.508732	542.541736	-79.991268	-22.958264	6398.602987	527.081901	83.220700	1.000000	1.000000	1.000000	
2.321565	525.661612	550.118599	-73.838388	-15.381401	5452.107495	236.587498	75.423438	1.000000	1.000000	1.000000	
2.400004	531.661613	556.993462	-67.838387	-8.506538	4602.046773	72.361184	68.369642	1.000000	1.000000	1.000000	
2.511429	536.407373	562.559486	-63.092627	-2.940514	3980.679538	8.646625	63.161113	1.000000	1.000000	1.000000	
2.599950	541.153134	567.941429	-58.346866	2.441429	3404.356788	5.960575	58.397923	1.000000	1.000000	1.000000	
2.699432	545.838054	573.323372	-53.661946	7.823372	2879.604409	61.205151	54.229232	1.000000	1.000000	1.000000	
2.803459	559.066663	581.244464	-40.433337	15.744464	1634.854731	247.888159	43.390585	1.000000	1.000000	1.000000	
2.899378	572.295272	586.636797	-27.204728	21.136797	740.097233	446.764172	34.450855	1.000000	1.000000	1.000000	
2.999333	585.523881	588.647049	-13.976119	23.147049	195.331913	535.785872	27.039190	1.000000	1.000000	1.000000	
3.102993	598.691649	588.889821	-0.808351	23.389821	0.653431	547.083733	23.403785	1.000000	1.000000	1.000000	
3.199780	611.920258	589.132593	12.420258	23.632593	154.262811	558.499471	26.697608	1.000000	1.000000	1.000000	
3.299287	625.088027	589.375366	25.588027	23.875366	654.747118	570.033085	34.996860	1.000000	1.000000	1.000000	
3.402732	638.010876	588.761698	38.510876	23.261698	1483.087538	541.106590	44.991045	1.000000	1.000000	1.000000	
3.499354	649.802724	586.066990	50.302724	20.566990	2530.364075	423.001085	54.344872	1.000000	1.000000	1.000000	
3.601929	660.217093	581.629762	60.717093	16.129762	3686.565392	260.169236	62.823042	1.000000	1.000000	1.000000	
3.701833	669.653342	576.304895	70.153342	10.804895	4921.491369	116.745749	70.980540	1.000000	1.000000	1.000000	
3.798365	676.733991	568.869347	77.233991	3.369347	5965.089299	11.352499	77.307450	1.000000	1.000000	1.000000	
3.901737	682.622799	560.363639	83.122799	-5.136361	6909.399765	26.382202	83.281342	1.000000	1.000000	1.000000	
4.001931	688.449208	551.857931	88.949208	-13.642069	7911.961614	186.106034	89.989264	1.000000	1.000000	1.000000	
4.098836	694.275617	543.505104	94.775617	-21.994896	8982.417540	483.775463	97.294363	1.000000	1.000000	1.000000	
4.198633	700.194066	535.642116	100.694066	-29.857884	10139.294836	891.493239	105.027559	1.000000	1.000000	1.000000	
4.301811	703.885681	533.185851	104.385681	-32.314149	10896.370319	1044.204255	109.272936	1.000000	1.000000	1.000000	
4.398390	706.628816	532.748225	107.128816	-32.751775	11476.583153	1072.678756	112.023488	1.000000	1.000000	1.000000	
4.501799	709.371951	533.778560	109.871951	-31.721440	12071.845568	1006.249773	114.359500	1.000000	1.000000	1.000000	
4.611373	711.169726	535.665334	111.669726	-29.834666	12470.127673	890.107276	115.586483	1.000000	1.000000	1.000000	
4.698305	711.321701	537.826669	111.821701	-27.673331	12504.092800	765.813253	115.195078	1.000000	1.000000	1.000000	
4.802009	710.955756	540.356164	111.455756	-25.143836	12422.385548	632.212514	114.256720	1.000000	1.000000	1.000000	
4.901961	707.756851	543.160218	108.256851	-22.339782	11719.545808	499.065855	110.537829	1.000000	1.000000	1.000000	
4.998354	701.115026	545.995473	101.615026	-19.504527	10325.613543	380.426586	103.469996	1.000000	1.000000	1.000000	
5.098527	694.381161	548.830727	94.881161	-16.669273	9002.434760	277.864653	96.334311	1.000000	1.000000	1.000000	
5.202099	687.617656	551.665982	88.117656	-13.834018	7764.721356	191.380058	89.196981	1.000000	1.000000	1.000000	
5.298287	680.975831	554.501236	81.475831	-10.998764	6638.311103	120.972799	82.214864	1.000000	1.000000	1.000000	
5.401957	674.638206	557.336491	75.138206	-8.163509	5645.750073	66.642878	75.580374	1.000000	1.000000	1.000000	
5.501858	670.464302	560.140546	70.964302	-5.359454	5035.932096	28.723751	71.166395	1.000000	1.000000	1.000000	
5.598282	667.812957	562.975800	68.312957	-2.524200	4666.660045	6.371584	68.359576	1.000000	1.000000	1.000000	
5.698289	665.557852	565.811055	66.057852	0.311055	4363.639773	0.096755	66.058584	1.000000	1.000000	1.000000	
5.801861	665.923547	567.850709	66.423547	2.350709	4412.087569	5.525835	66.465129	1.000000	1.000000	1.000000	
5.898157	667.752522	569.461364	68.252522	3.961364	4658.406742	15.692405	68.367384	1.000000	1.000000	1.000000	
6.001831	672.086857	570.338819	72.586857	4.838819	5268.851802	23.414165	72.747962	1.000000	1.000000	1.000000	
6.120520	679.662872	570.787273	80.162872	5.287273	6426.086052	27.955258	80.337048	1.000000	1.000000	1.000000	
6.198700	687.238887	571.235728	87.738887	5.735728	7698.112311	32.898573	87.926167	1.000000	1.000000	1.000000	
6.298410	694.785262	571.592142	95.285262	6.092142	9079.281190	37.114199	95.479817	1.000000	1.000000	1.000000	
6.401790	702.392477	571.673997	102.892477	6.173997	10586.861877	38.118239	103.077544	1.000000	1.000000	1.000000	
6.497507	709.999692	571.602972	110.499692	6.102972	12210.182008	37.246262	110.668100	1.000000	1.000000	1.000000	
6.598255	716.505547	571.531946	117.005547	6.031946	13690.298127	36.384374	117.160926	1.000000	1.000000	1.000000	
6.702407	721.543442	571.460921	122.043442	5.960921	14894.601857	35.532576	122.188929	1.000000	1.000000	1.000000	
6.798313	726.489298	571.329055	126.989298	5.829055	16126.281699	33.977886	127.123010	1.000000	1.000000	1.000000	
6.899458	731.343113	571.258030	131.843113	5.758030	17382.606354	33.154909	131.968789	1.000000	1.000000	1.000000	
7.001725	736.196928	571.187005	136.696928	5.687005	18686.050051	32.342020	136.815175	1.000000	1.000000	1.000000	
7.102032	741.142783	571.237659	141.642783	5.737659	20062.677922	32.920732	141.758946	1.000000	1.000000	1.000000	
7.198384	746.027798	573.032394	146.527798	7.532394	21470.395554	56.736955	146.721275	1.000000	1.000000	1.000000	
7.334758	752.465122	573.857135	152.965122	8.357135	23398.328546	69.841705	153.193245	0.000000	1.000000	0.000000	
7.398327	758.963286	574.895596	159.463286	9.395596	25428.539613	88.277229	159.739841	0.000000	1.000000	0.000000	
7.498466	763.258730	576.302218	163.758730	10.802218	26816.921717	116.687903	164.114623	0.000000	1.000000	0.000000	
7.601900	767.157934	577.708839	167.657934	12.208839	28109.182935	149.055745	168.101870	0.000000	1.000000	0.000000	
7.698290	770.843418	579.115460	171.343418	13.615460	29358.567031	185.380753	171.883530	0.000000	1.000000	0.000000	
7.798407	772.669383	580.245961	173.169383	14.745961	29987.635039	217.443376	173.796083	0.000000	1.000000	0.000000	
7.901800	771.662387	581.223583	172.162387	15.723583	29639.887365	247.231050	172.878913	0.000000	1.000000	0.000000	
7.998313	770.107831	581.773764	170.607831	16.273764	29107.031902	264.835391	171.382226	0.000000	1.000000	0.000000	
8.104542	767.182035	581.528345	167.682035	16.028345	28117.264802	256.907848	168.446349	0.000000	1.000000	0.000000	
8.201785	761.939639	580.609006	162.439639	15.109006	26386.636294	228.282075	163.140793	0.000000	1.000000	0.000000	
8.298202	756.545923	579.201388	157.045923	13.701388	24663.421940	187.728025	157.642475	0.000000	1.000000	0.000000	
8.401918	751.213047	576.294609	151.713047	10.794609	23016.848670	116.523583	152.096589	0.000000	1.000000	0.000000	
8.501677	745.880171	572.225630	146.380171	6.725630	21427.154531	45.234102	146.534599	1.000000	1.000000	1.000000	
8.598219	740.333575	566.749532	140.833575	1.249532	19834.095943	1.561329	140.839118	1.000000	1.000000	1.000000	
8.701849	730.429899	560.722753	130.929899	-4.777247	17142.638569	22.822091	131.017024	1.000000	1.000000	1.000000	
8.801695	719.125344	554.848854	119.625344	-10.651146	14310.222819	113.446910	120.098583	1.000000	1.000000	1.000000	
8.898184	707.820788	548.945315	108.320788	-16.554685	11733.393038	274.057585	109.578514	1.000000	1.000000	1.000000	
9.001779	696.910912	542.673617	97.410912	-22.826383	9488.885729	521.043780	100.049635	1.000000	1.000000	1.000000	
9.135046	694.928916	535.760758	95.428916	-29.739242	9106.677982	884.422523	99.955493	1.000000	1.000000	1.000000	
9.198471	698.461520	528.724659	98.961520	-36.775341	9793.382433	1352.425696	105.573709	1.000000	1.000000	1.000000	
9.298228	702.115804	522.668240	102.615804	-42.831760	10530.003244	1834.559630	111.196056	1.000000	1.000000	1.000000	
9.401806	705.770088	523.920422	106.270088	-41.579578	11293.331640	1728.861333	114.114824	1.000000	1.000000	1.000000	
9.499380	709.363532	525.662443	109.863532	-39.837557	12069.995724	1587.030952	116.863282	1.000000	1.000000	1.000000	
9.602006	707.406005	532.289622	107.906005	-33.210378	11643.705869	1102.929228	112.900997	1.000000	1.000000	1.000000	
9.701942	697.405117	548.331400	97.905117	-17.168600	9585.411993	294.760811	99.399058	1.000000	1.000000	1.000000	
9.798254	685.942510	565.989339	86.442510	0.489339	7472.307502	0.239453	86.443895	1.000000	1.000000	1.000000	
9.901359	670.244502	584.743958	70.744502	19.243958	5004.784608	370.329915	73.315173	1.000000	1.000000	1.000000	
10.001593	653.906895	603.376897	54.406895	37.876897	2960.110205	1434.659298	66.293058	1.000000	1.000000	1.000000	
10.099244	640.494287	614.788595	40.994287	49.288595	1680.531594	2429.365633	64.108480	1.000000	1.000000	1.000000	
10.198291	637.165520	617.904214	37.665520	52.404214	1418.691385	2746.201656	64.535983	1.000000	1.000000	1.000000	
10.301703	633.807112	621.051033	34.307112	55.551033	1176.977958	3085.917250	65.290851	1.000000	1.000000	1.000000	
10.398148	630.356665	624.258692	30.856665	58.758692	952.133767	3452.583836	66.368047	1.000000	1.000000	1.000000	
10.502194	623.433657	623.550750	23.933657	58.050750	572.819956	3369.889612	62.790999	1.000000	1.000000	1.000000	
10.601664	616.265730	620.824169	16.765730	55.324169	281.089699	3060.763681	57.808766	1.000000	1.000000	1.000000	
10.698110	609.221042	619.106908	9.721042	53.606908	94.498665	2873.700562	54.481182	1.000000	1.000000	1.000000	
10.801811	602.113955	618.491007	2.613955	52.991007	6.832760	2808.046772	53.055438	1.000000	1.000000	1.000000	
10.901618	594.977227	621.269665	-4.522773	55.769665	20.455472	3110.255563	55.952757	1.000000	1.000000	1.000000	
11.001678	587.748460	625.394604	-11.751540	59.894604	138.098694	3587.363588	61.036565	1.000000	1.000000	1.000000	
11.098665	580.580532	629.611583	-18.919468	64.111583	357.946253	4110.295040	66.844905	1.000000	1.000000	1.000000	
11.201540	576.794685	633.399561	-22.705315	67.899561	515.531331	4610.350447	71.595264	1.000000	1.000000	1.000000	
11.298453	573.710837	636.546380	-25.789163	71.046380	665.080904	5047.588140	75.582201	1.000000	1.000000	1.000000	
11.402177	570.626990	635.685559	-28.873010	70.185559	833.650708	4926.012684	75.892446	1.000000	1.000000	1.000000	
11.504655	567.543142	632.378658	-31.956858	66.878658	1021.240742	4472.754853	74.121492	1.000000	1.000000	1.000000	
11.598667	564.428095	629.377516	-35.071905	63.877516	1230.038521	4080.337103	72.872324	1.000000	1.000000	1.000000	
11.701801	561.313048	631.728735	-38.186952	66.228735	1458.243341	4386.245359	76.449256	1.000000	1.000000	1.000000	
11.802526	558.229200	635.884874	-41.270800	70.384874	1703.278931	4954.030472	81.592337	1.000000	1.000000	1.000000	
11.898461	555.174993	640.162693	-44.325007	74.662693	1964.706287	5574.517670	86.828705	1.000000	1.000000	1.000000	
11.998301	552.120785	644.379671	-47.379215	78.879671	2244.790010	6222.002554	92.015176	1.000000	1.000000	1.000000	
12.104295	549.066578	643.458010	-50.433422	77.958010	2543.530100	6077.451338	92.849240	1.000000	1.000000	1.000000	
12.198310	546.012370	636.449229	-53.487630	70.949229	2860.926557	5033.793072	88.852235	1.000000	1.000000	1.000000	
12.298198	542.928523	626.841488	-56.571477	61.341488	3200.332059	3762.778097	83.445252	1.000000	1.000000	1.000000	
12.401715	539.844675	617.020026	-59.655325	51.520026	3558.757791	2654.313110	78.823035	1.000000	1.000000	1.000000	
12.498094	536.760828	611.633645	-62.739172	46.133645	3936.203755	2128.313205	77.875009	1.000000	1.000000	1.000000	
12.601938	540.202774	593.836926	-59.297226	28.336926	3516.160994	802.981386	65.720182	1.000000	1.000000	1.000000	
12.701657	543.643161	575.183767	-55.856839	9.683767	3119.986497	93.775350	56.690051	1.000000	1.000000	1.000000	
12.805973	547.083547	556.469768	-52.416453	-9.030232	2747.484519	81.545081	53.188623	1.000000	1.000000	1.000000	
12.898103	550.525494	537.540490	-48.974506	-27.959510	2398.502257	781.734220	56.393585	1.000000	1.000000	1.000000	
13.001649	554.028280	517.754771	-45.471720	-47.745229	2067.677287	2279.606913	65.933938	1.000000	1.000000	1.000000	
13.098120	557.468667	497.969052	-42.031333	-67.530948	1766.632961	4560.428947	79.542831	1.000000	1.000000	1.000000	
13.201683	561.032293	485.555893	-38.467707	-79.944107	1479.764446	6391.060231	88.717668	1.000000	1.000000	1.000000	
13.301752	564.535080	479.931854	-34.964920	-85.568146	1222.545630	7321.907570	92.436212	1.000000	1.000000	1.000000	
13.398139	567.975467	475.899015	-31.524533	-89.600985	993.796208	8028.336444	94.984907	1.000000	1.000000	1.000000	
13.501698	571.415853	474.182777	-28.084147	-91.317223	788.719306	8338.835302	95.538236	1.000000	1.000000	1.000000	
13.601592	574.856240	474.628698	-24.643760	-90.871302	607.314923	8257.593585	94.153643	1.000000	1.000000	1.000000	
13.698491	578.143746	478.242979	-21.356254	-87.257021	456.089575	7613.787743	89.832496	1.000000	1.000000	1.000000	
13.801633	580.456253	483.289340	-19.043747	-82.210660	362.664308	6758.592621	84.387540	1.000000	1.000000	1.000000	
13.900686	581.823399	488.458941	-17.676601	-77.041059	312.462211	5935.324752	79.042944	1.000000	1.000000	1.000000	
13.998104	582.917546	493.628542	-16.582454	-71.871458	274.977784	5165.506435	73.759638	1.000000	1.000000	1.000000	
14.104563	584.041332	498.798143	-15.458668	-66.701857	238.970403	4449.137670	68.469760	1.000000	1.000000	1.000000	
14.198077	585.165119	503.967745	-14.334881	-61.532255	205.488813	3786.218458	63.179959	1.000000	1.000000	1.000000	
14.301630	586.288906	509.137346	-13.211094	-56.362654	174.533017	3176.748797	57.890257	1.000000	1.000000	1.000000	
14.398366	587.383052	514.306947	-12.116948	-51.193053	146.820426	2620.728688	52.607501	1.000000	1.000000	1.000000	
14.501712	588.506839	519.201988	-10.993161	-46.298012	120.849596	2143.505913	47.585245	1.000000	1.000000	1.000000	
14.598151	589.691465	521.568269	-9.808535	-43.931731	96.207355	1929.996973	45.013379	1.000000	1.000000	1.000000	
14.698095	590.815252	521.953350	-8.684748	-43.546650	75.424852	1896.310698	44.404229	1.000000	1.000000	1.000000	
14.801596	591.939038	522.003031	-7.560962	-43.496969	57.168142	1891.986271	44.149229	1.000000	1.000000	1.000000	
15.009000	588.924534	527.098546	-10.575466	-38.401454	111.840491	1474.671645	39.831045	1.000000	1.000000	1.000000	
15.014112	585.910029	532.194061	-13.589971	-33.305939	184.687320	1109.285562	35.971835	1.000000	1.000000	1.000000	
15.100631	582.713004	536.770096	-16.786996	-28.729904	281.803238	825.407384	33.274775	1.000000	1.000000	1.000000	
15.198295	577.748499	541.346131	-21.751501	-24.153869	473.127791	583.409395	32.504418	1.000000	1.000000	1.000000	
15.301806	571.961874	545.922166	-27.538126	-19.577834	758.348367	383.291596	33.788163	1.000000	1.000000	1.000000	
15.401577	565.839849	550.498201	-33.660151	-15.001799	1133.005732	225.053987	36.851862	1.000000	1.000000	1.000000	
15.501664	559.717825	555.074235	-39.782175	-10.425765	1582.621472	108.696568	41.125637	1.000000	1.000000	1.000000	
15.598409	553.625440	559.650270	-45.874560	-5.849730	2104.475265	34.219338	46.246023	1.000000	1.000000	1.000000	
15.701752	547.503415	564.226305	-51.996585	-1.273695	2703.644842	1.622299	52.012183	1.000000	1.000000	1.000000	
15.831082	541.381390	568.802340	-58.118610	3.302340	3377.772794	10.905449	58.212355	1.000000	1.000000	1.000000	
15.898279	535.259365	573.378375	-64.240635	7.878375	4126.859122	62.068789	64.721928	1.000000	1.000000	1.000000	
15.998808	529.137341	577.954410	-70.362659	12.454410	4950.903826	155.112318	71.456393	1.000000	1.000000	1.000000	
16.103879	523.015316	582.530444	-76.484684	17.030444	5849.906904	290.036038	78.357788	1.000000	1.000000	1.000000	
16.198040	517.046171	584.872559	-82.453829	19.372559	6798.633903	375.296053	84.699055	1.000000	1.000000	1.000000	
16.301422	512.079511	575.427000	-87.420489	9.927000	7642.341954	98.545324	87.982312	1.000000	1.000000	1.000000	
16.398150	509.218850	564.972120	-90.281150	-0.527880	8150.685998	0.278657	90.282693	1.000000	1.000000	1.000000	
16.499473	508.560910	553.629601	-90.939090	-11.870399	8269.918117	140.906379	91.710547	1.000000	1.000000	1.000000	
16.601108	510.991769	541.124881	-88.508231	-24.375119	7833.706876	594.146416	91.803340	1.000000	1.000000	1.000000	
16.697893	513.636349	528.467282	-85.863651	-37.032718	7372.566557	1371.422225	93.509298	1.000000	1.000000	1.000000	
