AF-MATB V. 3.03
Programmed using MATLAB 7.5.0 and other Custom MATLAB Functions.

William Daniel Miller, Jr.
Air Force Research Laboratory
711th Human Performance Wing
Human Effectiveness Directorate
Applied Neuroscience Branch

RMS Target Value is:	2500.000000	
Main Tank Automation Lower Limit is:	2350.000000	
Main Tank Automation Upper Limit is:	2650.000000	


Event Time	Tank A Value	Tank B Value	Tank A Difference	Tank B Difference	Tank A Deviation	Tank B Deviation	Euclidian Distance From Target	Tank A In Range?	Tank B In Range?	Both In Range?
0.097259	2499.588653	2499.588653	-0.411347	-0.411347	0.169206	0.169206	0.581732	1.000000	1.000000	1.000000	
0.109094	2496.468534	2496.468534	-3.531466	-3.531466	12.471254	12.471254	4.994247	1.000000	1.000000	1.000000	
0.202818	2493.375702	2493.375702	-6.624298	-6.624298	43.881325	43.881325	9.368172	1.000000	1.000000	1.000000	
0.299359	2490.074320	2490.074320	-9.925680	-9.925680	98.519115	98.519115	14.037031	1.000000	1.000000	1.000000	
0.402841	2486.709296	2486.709296	-13.290704	-13.290704	176.642808	176.642808	18.795894	1.000000	1.000000	1.000000	
0.499617	2483.404985	2483.404985	-16.595015	-16.595015	275.394527	275.394527	23.468895	1.000000	1.000000	1.000000	
0.599428	2480.073557	2480.073557	-19.926443	-19.926443	397.063132	397.063132	28.180246	1.000000	1.000000	1.000000	
0.702691	2476.705453	2476.705453	-23.294547	-23.294547	542.635909	542.635909	32.943464	1.000000	1.000000	1.000000	
0.799318	2473.410060	2473.410060	-26.589940	-26.589940	707.024930	707.024930	37.603854	1.000000	1.000000	1.000000	
0.899333	2470.071724	2470.071724	-29.928276	-29.928276	895.701689	895.701689	42.324973	1.000000	1.000000	1.000000	
1.002645	2466.706486	2466.706486	-33.293514	-33.293514	1108.458065	1108.458065	47.084139	1.000000	1.000000	1.000000	
1.103490	2463.412504	2463.412504	-36.587496	-36.587496	1338.644867	1338.644867	51.742533	1.000000	1.000000	1.000000	
1.199379	2460.075644	2460.075644	-39.924356	-39.924356	1593.954187	1593.954187	56.461565	1.000000	1.000000	1.000000	
1.302646	2456.709273	2456.709273	-43.290727	-43.290727	1874.087074	1874.087074	61.222334	1.000000	1.000000	1.000000	
1.399678	2453.405860	2453.405860	-46.594140	-46.594140	2171.013925	2171.013925	65.894065	1.000000	1.000000	1.000000	
1.499511	2450.074966	2450.074966	-49.925034	-49.925034	2492.508993	2492.508993	70.604660	1.000000	1.000000	1.000000	
1.601225	2446.721255	2446.721255	-53.278745	-53.278745	2838.624684	2838.624684	75.347524	1.000000	1.000000	1.000000	
1.700427	2443.399536	2443.399536	-56.600464	-56.600464	3203.612537	3203.612537	80.045144	1.000000	1.000000	1.000000	
1.799341	2440.075122	2440.075122	-59.924878	-59.924878	3590.990957	3590.990957	84.746575	1.000000	1.000000	1.000000	
1.902837	2436.708024	2436.708024	-63.291976	-63.291976	4005.874257	4005.874257	89.508371	1.000000	1.000000	1.000000	
1.999327	2433.407968	2433.407968	-66.592032	-66.592032	4434.498708	4434.498708	94.175355	1.000000	1.000000	1.000000	
2.112230	2430.076626	2430.076626	-69.923374	-69.923374	4889.278263	4889.278263	98.886584	1.000000	1.000000	1.000000	
2.199566	2426.741541	2426.741541	-73.258459	-73.258459	5366.801818	5366.801818	103.603106	1.000000	1.000000	1.000000	
2.321526	2422.669753	2422.669753	-77.330247	-77.330247	5979.967101	5979.967101	109.361484	1.000000	1.000000	1.000000	
2.399904	2420.069789	2420.069789	-79.930211	-79.930211	6388.838649	6388.838649	113.038389	1.000000	1.000000	1.000000	
2.511384	2416.347009	2416.347009	-83.652991	-83.652991	6997.822825	6997.822825	118.303194	1.000000	1.000000	1.000000	
2.599906	2413.402121	2413.402121	-86.597879	-86.597879	7499.192581	7499.192581	122.467894	1.000000	1.000000	1.000000	
2.699393	2410.072746	2410.072746	-89.927254	-89.927254	8086.910927	8086.910927	127.176342	1.000000	1.000000	1.000000	
2.803359	2406.702889	2406.702889	-93.297111	-93.297111	8704.350895	8704.350895	131.942040	1.000000	1.000000	1.000000	
2.899337	2403.410190	2403.410190	-96.589810	-96.589810	9329.591383	9329.591383	136.598619	1.000000	1.000000	1.000000	
2.999293	2400.077821	2400.077821	-99.922179	-99.922179	9984.441814	9984.441814	141.311300	1.000000	1.000000	1.000000	
3.102892	2396.706339	2396.706339	-103.293661	-103.293661	10669.580487	10669.580487	146.079297	1.000000	1.000000	1.000000	
3.199724	2393.404765	2393.404765	-106.595235	-106.595235	11362.544208	11362.544208	150.748428	1.000000	1.000000	1.000000	
3.299248	2390.077956	2390.077956	-109.922044	-109.922044	12082.855771	12082.855771	155.453246	1.000000	1.000000	1.000000	
3.402631	2386.709531	2386.709531	-113.290469	-113.290469	12834.730271	12834.730271	160.216917	1.000000	1.000000	1.000000	
3.499313	2383.411636	2383.411636	-116.588364	-116.588364	13592.846687	13592.846687	164.880846	1.000000	1.000000	1.000000	
3.601825	2380.072937	2380.072937	-119.927063	-119.927063	14382.500487	14382.500487	169.602479	1.000000	1.000000	1.000000	
3.701730	2376.739969	2376.739969	-123.260031	-123.260031	15193.035203	15193.035203	174.316007	1.000000	1.000000	1.000000	
3.798324	2373.444426	2373.444426	-126.555574	-126.555574	16016.313351	16016.313351	178.976609	1.000000	1.000000	1.000000	
3.901630	2370.076322	2370.076322	-129.923678	-129.923678	16880.162079	16880.162079	183.739827	1.000000	1.000000	1.000000	
4.001827	2366.736917	2366.736917	-133.263083	-133.263083	17759.049165	17759.049165	188.462459	1.000000	1.000000	1.000000	
4.098789	2363.468619	2363.468619	-136.531381	-136.531381	18640.817981	18640.817981	193.084531	1.000000	1.000000	1.000000	
4.198587	2360.103360	2360.103360	-139.896640	-139.896640	19571.070003	19571.070003	197.843726	1.000000	1.000000	1.000000	
4.301711	2356.741479	2356.741479	-143.258521	-143.258521	20523.003850	20523.003850	202.598143	1.000000	1.000000	1.000000	
4.398350	2353.446599	2353.446599	-146.553401	-146.553401	21477.899465	21477.899465	207.257808	1.000000	1.000000	1.000000	
4.501695	2350.073811	2350.073811	-149.926189	-149.926189	22477.862009	22477.862009	212.027649	1.000000	1.000000	1.000000	
4.601831	2346.738727	2346.738727	-153.261273	-153.261273	23489.017903	23489.017903	216.744171	0.000000	0.000000	0.000000	
4.698250	2343.447247	2343.447247	-156.552753	-156.552753	24508.764608	24508.764608	221.399027	0.000000	0.000000	0.000000	
4.801872	2340.074438	2340.074438	-159.925562	-159.925562	25576.185364	25576.185364	226.168899	0.000000	0.000000	0.000000	
4.901823	2336.745619	2336.745619	-163.254381	-163.254381	26651.992863	26651.992863	230.876559	0.000000	0.000000	0.000000	
4.998299	2333.446911	2333.446911	-166.553089	-166.553089	27739.931517	27739.931517	235.541638	0.000000	0.000000	0.000000	
5.098334	2330.111270	2330.111270	-169.888730	-169.888730	28862.180580	28862.180580	240.258946	0.000000	0.000000	0.000000	
5.201960	2326.739958	2326.739958	-173.260042	-173.260042	30019.041993	30019.041993	245.026701	0.000000	0.000000	0.000000	
5.298230	2323.447217	2323.447217	-176.552783	-176.552783	31170.885318	31170.885318	249.683341	0.000000	0.000000	0.000000	
5.401819	2320.071478	2320.071478	-179.928522	-179.928522	32374.272913	32374.272913	254.457356	0.000000	0.000000	0.000000	
5.501720	2316.739238	2316.739238	-183.260762	-183.260762	33584.506970	33584.506970	259.169855	0.000000	0.000000	0.000000	
5.598225	2313.447309	2313.447309	-186.552691	-186.552691	34801.906675	34801.906675	263.825346	0.000000	0.000000	0.000000	
5.698231	2310.112373	2310.112373	-189.887627	-189.887627	36057.310703	36057.310703	268.541657	0.000000	0.000000	0.000000	
5.801721	2306.740121	2306.740121	-193.259879	-193.259879	37349.380833	37349.380833	273.310742	0.000000	0.000000	0.000000	
5.898095	2303.450052	2303.450052	-196.549948	-196.549948	38631.881933	38631.881933	277.963602	0.000000	0.000000	0.000000	
6.001691	2300.072689	2300.072689	-199.927311	-199.927311	39970.929791	39970.929791	282.739915	0.000000	0.000000	0.000000	
6.120467	2296.742822	2296.742822	-203.257178	-203.257178	41313.480424	41313.480424	287.449058	0.000000	0.000000	0.000000	
6.198628	2293.439174	2293.439174	-206.560826	-206.560826	42667.375002	42667.375002	292.121122	0.000000	0.000000	0.000000	
6.298352	2290.107575	2290.107575	-209.892425	-209.892425	44054.830232	44054.830232	296.832715	0.000000	0.000000	0.000000	
6.401586	2286.741887	2286.741887	-213.258113	-213.258113	45479.022580	45479.022580	301.592515	0.000000	0.000000	0.000000	
6.497444	2286.415162	2283.474637	-213.584838	-216.525363	45618.482866	46883.232869	304.140947	0.000000	0.000000	0.000000	
6.598176	2288.765605	2283.138859	-211.234395	-216.861141	44619.969797	47028.754289	302.735403	0.000000	0.000000	0.000000	
6.702267	2291.129804	2285.503059	-208.870196	-214.496941	43626.758766	46008.937762	299.392212	0.000000	0.000000	0.000000	
6.798256	2293.436400	2287.809655	-206.563600	-212.190345	42668.520876	45024.742618	296.130484	0.000000	0.000000	0.000000	
6.899369	2295.777172	2290.150427	-204.222828	-209.849573	41706.963592	44036.843481	292.820435	0.000000	0.000000	0.000000	
7.001582	2298.125054	2292.498309	-201.874946	-207.501691	40753.493769	43056.951786	289.500338	0.000000	0.000000	0.000000	
7.101891	2300.463057	2294.836311	-199.536943	-205.163689	39814.991812	42092.139142	286.194219	0.000000	0.000000	0.000000	
7.198325	2302.767766	2297.141021	-197.232234	-202.858979	38900.554035	41151.765337	282.935186	0.000000	0.000000	0.000000	
7.334703	2305.128942	2299.502197	-194.871058	-200.497803	37974.729335	40199.369171	279.596313	0.000000	0.000000	0.000000	
7.398270	2307.434639	2301.807894	-192.565361	-198.192106	37081.418070	39280.110758	276.335899	0.000000	0.000000	0.000000	
7.498407	2309.772447	2304.145702	-190.227553	-195.854298	36186.521817	38358.906008	273.030086	0.000000	0.000000	0.000000	
7.601755	2312.128862	2306.502117	-187.871138	-193.497883	35295.564331	37441.430627	269.697970	0.000000	0.000000	0.000000	
7.698232	2314.433557	2308.806812	-185.566443	-191.193188	34434.904703	36554.835139	266.438998	0.000000	0.000000	0.000000	
7.798349	2316.767862	2311.141117	-183.232138	-188.858883	33574.016381	35667.677739	263.138165	0.000000	0.000000	0.000000	
7.901653	2319.126987	2313.500242	-180.873013	-186.499758	32715.046932	34782.159903	259.802246	0.000000	0.000000	0.000000	
7.998254	2321.433583	2315.806837	-178.566417	-184.193163	31885.965415	33927.121132	256.540614	0.000000	0.000000	0.000000	
8.104398	2323.797049	2318.170303	-176.202951	-181.829697	31047.480108	33062.038584	253.198576	0.000000	0.000000	0.000000	
8.201638	2326.126623	2320.499878	-173.873377	-179.500122	30231.951244	32220.293876	249.904472	0.000000	0.000000	0.000000	
8.298142	2328.433279	2322.806534	-171.566721	-177.193466	29435.139845	31397.524549	246.642787	0.000000	0.000000	0.000000	
8.401772	2330.795442	2325.168697	-169.204558	-174.831303	28630.182356	30565.984475	243.302624	0.000000	0.000000	0.000000	
8.501529	2333.128071	2327.501325	-166.871929	-172.498675	27846.240844	29755.792754	240.004237	0.000000	0.000000	0.000000	
8.598159	2335.433469	2329.806724	-164.566531	-170.193276	27082.143174	28965.751306	236.744365	0.000000	0.000000	0.000000	
8.701702	2337.795662	2332.168917	-162.204338	-167.831083	26310.247160	28167.272370	233.404198	0.000000	0.000000	0.000000	
8.801546	2340.128021	2334.501276	-159.871979	-165.498724	25559.049627	27389.827660	230.106230	0.000000	0.000000	0.000000	
8.898124	2342.433494	2336.806749	-157.566506	-163.193251	24827.203718	26632.037131	226.846293	0.000000	0.000000	0.000000	
9.001632	2344.794580	2339.167835	-155.205420	-160.832165	24088.722392	25866.985350	223.507735	0.000000	0.000000	0.000000	
9.134982	2347.125816	2341.499071	-152.874184	-158.500929	23370.516106	25122.544521	220.211400	0.000000	0.000000	0.000000	
9.198413	2349.439493	2343.812747	-150.560507	-156.187253	22668.466367	24394.457845	216.939909	0.000000	0.000000	0.000000	
9.298166	2351.767121	2346.140376	-148.232879	-153.859624	21972.986405	23672.783939	213.648708	1.000000	0.000000	0.000000	
9.401649	2354.128147	2348.501402	-145.871853	-151.498598	21278.597533	22951.825286	210.310301	1.000000	0.000000	0.000000	
9.498452	2356.438186	2350.811441	-143.561814	-149.188559	20609.994492	22257.226245	207.044007	1.000000	1.000000	1.000000	
9.601901	2358.795334	2353.168589	-141.204666	-146.831411	19938.757561	21559.463164	203.711121	1.000000	1.000000	1.000000	
9.701827	2361.130582	2355.503837	-138.869418	-144.496163	19284.715130	20879.141042	200.409222	1.000000	1.000000	1.000000	
9.798211	2363.433301	2357.806556	-136.566699	-142.193444	18650.463224	20218.975512	197.153338	1.000000	1.000000	1.000000	
9.901281	2365.793085	2360.166339	-134.206915	-139.833661	18011.496157	19553.452647	193.816792	1.000000	1.000000	1.000000	
10.001485	2368.124366	2362.497620	-131.875634	-137.502380	17391.182968	18906.904410	190.520569	1.000000	1.000000	1.000000	
10.099199	2370.433057	2364.806312	-129.566943	-135.193688	16787.592671	18277.333273	187.256311	1.000000	1.000000	1.000000	
10.198248	2372.770311	2367.143566	-127.229689	-132.856434	16187.393740	17650.832078	183.951694	1.000000	1.000000	1.000000	
10.301597	2375.128283	2369.501538	-124.871717	-130.498462	15592.945681	17029.848604	180.617813	1.000000	1.000000	1.000000	
10.398105	2377.433068	2371.806322	-122.566932	-128.193678	15022.652902	16433.618954	177.359161	1.000000	1.000000	1.000000	
10.502088	2379.797087	2374.170342	-120.202913	-125.829658	14448.740186	15833.102764	174.016789	1.000000	1.000000	1.000000	
10.601555	2382.125779	2376.499033	-117.874221	-123.500967	13894.332055	15252.488729	170.724400	1.000000	1.000000	1.000000	
10.698067	2384.433497	2378.806752	-115.566503	-121.193248	13355.616548	14687.803332	167.461697	1.000000	1.000000	1.000000	
10.801704	2386.794703	2381.167958	-113.205297	-118.832042	12815.439321	14121.054303	164.123410	1.000000	1.000000	1.000000	
10.901508	2389.126328	2383.499583	-110.873672	-116.500417	12292.971130	13572.347189	160.826983	1.000000	1.000000	1.000000	
11.001570	2391.461456	2385.834711	-108.538544	-114.165289	11780.615477	13033.713193	157.525644	1.000000	1.000000	1.000000	
11.098612	2393.773830	2388.147085	-106.226170	-111.852915	11283.999092	12511.074527	154.256519	1.000000	1.000000	1.000000	
11.201434	2396.124857	2390.498111	-103.875143	-109.501889	10790.045431	11990.663617	150.932796	1.000000	1.000000	1.000000	
11.298410	2398.438458	2392.811713	-101.561542	-107.188287	10314.746760	11489.328851	147.662032	1.000000	1.000000	1.000000	
11.402071	2400.803930	2395.177185	-99.196070	-104.822815	9839.860282	10987.822558	144.317992	1.000000	1.000000	1.000000	
11.504484	2403.127262	2397.500517	-96.872738	-102.499483	9384.327335	10506.144017	141.033582	1.000000	1.000000	1.000000	
11.598606	2405.439951	2399.813206	-94.560049	-100.186794	8941.602915	10037.393778	137.764279	1.000000	1.000000	1.000000	
11.701693	2407.795782	2402.169037	-92.204218	-97.830963	8501.617801	9570.897339	134.434055	1.000000	1.000000	1.000000	
11.802419	2410.128291	2404.501545	-89.871709	-95.498455	8076.924153	9119.954829	131.136871	1.000000	1.000000	1.000000	
11.898412	2412.432581	2406.805836	-87.567419	-93.194164	7668.052845	8685.152209	127.879651	1.000000	1.000000	1.000000	
11.998258	2414.770000	2409.143255	-85.230000	-90.856745	7264.152948	8254.948195	124.575684	1.000000	1.000000	1.000000	
12.104189	2417.127343	2411.500598	-82.872657	-88.499402	6867.877278	7832.144185	121.243645	1.000000	1.000000	1.000000	
12.198266	2419.432951	2413.806206	-80.567049	-86.193794	6491.049401	7429.370172	117.984828	1.000000	1.000000	1.000000	
12.298153	2421.767301	2416.140556	-78.232699	-83.859444	6120.355243	7032.406432	114.685490	1.000000	1.000000	1.000000	
12.401607	2424.128611	2418.501866	-75.871389	-81.498134	5756.467678	6641.945884	111.348164	1.000000	1.000000	1.000000	
12.498051	2426.432587	2420.805842	-73.567413	-79.194158	5412.164236	6271.714668	108.091993	1.000000	1.000000	1.000000	
12.601832	2428.795484	2423.168739	-71.204516	-76.831261	5070.083072	5903.042665	104.752688	1.000000	1.000000	1.000000	
12.701546	2431.124190	2425.497445	-68.875810	-74.502555	4743.877151	5550.630671	101.461854	1.000000	1.000000	1.000000	
12.805918	2433.610722	2427.983977	-66.389278	-72.016023	4407.536176	5186.307532	97.948168	1.000000	1.000000	1.000000	
12.898059	2435.765346	2430.138600	-64.234654	-69.861400	4126.090822	4880.615146	94.903667	1.000000	1.000000	1.000000	
13.001538	2438.127255	2432.500510	-61.872745	-67.499490	3828.236613	4556.181217	91.566467	1.000000	1.000000	1.000000	
13.098077	2440.432054	2434.805309	-59.567946	-65.194691	3548.340165	4250.347730	88.310180	1.000000	1.000000	1.000000	
13.201575	2442.793948	2437.167203	-57.206052	-62.832797	3272.532352	3947.960364	84.973482	1.000000	1.000000	1.000000	
13.301645	2445.127954	2439.501209	-54.872046	-60.498791	3010.941458	3660.103762	81.676467	1.000000	1.000000	1.000000	
13.398094	2447.432095	2441.805349	-52.567905	-58.194651	2763.384675	3386.617352	78.421949	1.000000	1.000000	1.000000	
13.501589	2449.793629	2444.166884	-50.206371	-55.833116	2520.679645	3117.336813	75.086726	1.000000	1.000000	1.000000	
13.601482	2452.124117	2446.497372	-47.875883	-53.502628	2292.100170	2862.531219	71.795762	1.000000	1.000000	1.000000	
13.698441	2454.436611	2448.809866	-45.563389	-51.190134	2076.022417	2620.429837	68.530667	1.000000	1.000000	1.000000	
13.801525	2456.791080	2451.164335	-43.208920	-48.835665	1867.010759	2384.922184	65.206847	1.000000	1.000000	1.000000	
13.900500	2459.101628	2453.474883	-40.898372	-46.525117	1672.676832	2164.586528	61.945648	1.000000	1.000000	1.000000	
13.998059	2461.432011	2455.805266	-38.567989	-44.194734	1487.489791	1953.174547	58.657176	1.000000	1.000000	1.000000	
14.104452	2463.791046	2458.164300	-36.208954	-41.835700	1311.088374	1750.225754	55.329144	1.000000	1.000000	1.000000	
14.198032	2466.098570	2460.471825	-33.901430	-39.528175	1149.306977	1562.476658	52.074789	1.000000	1.000000	1.000000	
14.301517	2468.460179	2462.833434	-31.539821	-37.166566	994.760287	1381.353616	48.745399	1.000000	1.000000	1.000000	
14.398316	2470.768916	2465.142171	-29.231084	-34.857829	854.456277	1215.068261	45.492027	1.000000	1.000000	1.000000	
14.501546	2473.129523	2467.502777	-26.870477	-32.497223	722.022556	1056.069475	42.167429	1.000000	1.000000	1.000000	
14.598106	2475.432481	2469.805736	-24.567519	-30.194264	603.562997	911.693598	38.926297	1.000000	1.000000	1.000000	
14.698050	2477.766337	2472.139591	-22.233663	-27.860409	494.335787	776.202365	35.644609	1.000000	1.000000	1.000000	
14.801485	2480.126105	2474.499360	-19.873895	-25.500640	394.971702	650.282649	32.330394	1.000000	1.000000	1.000000	
15.008952	2482.435470	2476.808725	-17.564530	-23.191275	308.512703	537.835230	29.092060	1.000000	1.000000	1.000000	
15.014073	2485.104977	2479.478232	-14.895023	-20.521768	221.861699	421.142954	25.357536	1.000000	1.000000	1.000000	
15.100520	2487.103152	2481.476407	-12.896848	-18.523593	166.328690	343.123507	22.571048	1.000000	1.000000	1.000000	
15.198250	2489.435047	2483.808301	-10.564953	-16.191699	111.618239	262.171101	19.333632	1.000000	1.000000	1.000000	
15.301695	2491.793183	2486.166438	-8.206817	-13.833562	67.351840	191.367433	16.084753	1.000000	1.000000	1.000000	
15.401463	2494.123536	2488.496791	-5.876464	-11.503209	34.532827	132.323817	12.917300	1.000000	1.000000	1.000000	
15.501534	2496.459338	2490.832593	-3.540662	-9.167407	12.536287	84.041354	9.827392	1.000000	1.000000	1.000000	
15.598359	2498.768748	2493.142003	-1.231252	-6.857997	1.515981	47.032122	6.967647	1.000000	1.000000	1.000000	
15.701637	2501.129011	2495.502265	1.129011	-4.497735	1.274665	20.229616	4.637271	1.000000	1.000000	1.000000	
15.831039	2504.192656	2498.565911	4.192656	-1.434089	17.578362	2.056613	4.431137	1.000000	1.000000	1.000000	
15.898229	2505.767157	2500.140412	5.767157	0.140412	33.260099	0.019715	5.768866	1.000000	1.000000	1.000000	
15.998760	2508.110593	2502.483848	8.110593	2.483848	65.781725	6.169502	8.482407	1.000000	1.000000	1.000000	
