AF-MATB V. 3.03
Programmed using MATLAB 7.5.0 and other Custom MATLAB Functions.

William Daniel Miller, Jr.
Air Force Research Laboratory
711th Human Performance Wing
Human Effectiveness Directorate
Applied Neuroscience Branch

RMS Target Value is:	2500.000000	
Main Tank Automation Lower Limit is:	2350.000000	
Main Tank Automation Upper Limit is:	2650.000000	


Event Time	Tank A Value	Tank B Value	Tank A Difference	Tank B Difference	Tank A Deviation	Tank B Deviation	Euclidian Distance From Target	Tank A In Range?	Tank B In Range?	Both In Range?
0.097869	2499.598875	2499.598875	-0.401125	-0.401125	0.160901	0.160901	0.567276	1.000000	1.000000	1.000000	
0.109922	2496.444903	2496.444903	-3.555097	-3.555097	12.638715	12.638715	5.027666	1.000000	1.000000	1.000000	
0.202209	2493.403011	2493.403011	-6.596989	-6.596989	43.520264	43.520264	9.329551	1.000000	1.000000	1.000000	
0.298722	2490.105671	2490.105671	-9.894329	-9.894329	97.897740	97.897740	13.992694	1.000000	1.000000	1.000000	
0.401980	2486.733119	2486.733119	-13.266881	-13.266881	176.010120	176.010120	18.762202	1.000000	1.000000	1.000000	
0.502089	2483.397885	2483.397885	-16.602115	-16.602115	275.630224	275.630224	23.478936	1.000000	1.000000	1.000000	
0.598695	2480.101786	2480.101786	-19.898214	-19.898214	395.938936	395.938936	28.140325	1.000000	1.000000	1.000000	
0.701838	2476.733618	2476.733618	-23.266382	-23.266382	541.324545	541.324545	32.903633	1.000000	1.000000	1.000000	
0.798557	2473.434097	2473.434097	-26.565903	-26.565903	705.747217	705.747217	37.569861	1.000000	1.000000	1.000000	
0.900619	2470.112677	2470.112677	-29.887323	-29.887323	893.252067	893.252067	42.267057	1.000000	1.000000	1.000000	
1.001055	2466.767392	2466.767392	-33.232608	-33.232608	1104.406263	1104.406263	46.998006	1.000000	1.000000	1.000000	
1.101316	2463.437568	2463.437568	-36.562432	-36.562432	1336.811466	1336.811466	51.707088	1.000000	1.000000	1.000000	
1.198050	2460.132315	2460.132315	-39.867685	-39.867685	1589.432283	1589.432283	56.381420	1.000000	1.000000	1.000000	
1.301175	2456.772146	2456.772146	-43.227854	-43.227854	1868.647403	1868.647403	61.133418	1.000000	1.000000	1.000000	
1.397484	2453.469909	2453.469909	-46.530091	-46.530091	2165.049406	2165.049406	65.803486	1.000000	1.000000	1.000000	
1.500899	2450.105975	2450.105975	-49.894025	-49.894025	2489.413731	2489.413731	70.560807	1.000000	1.000000	1.000000	
1.600965	2446.769693	2446.769693	-53.230307	-53.230307	2833.465623	2833.465623	75.279023	1.000000	1.000000	1.000000	
1.697554	2443.476587	2443.476587	-56.523413	-56.523413	3194.896191	3194.896191	79.936177	1.000000	1.000000	1.000000	
1.801047	2440.102282	2440.102282	-59.897718	-59.897718	3587.736652	3587.736652	84.708166	1.000000	1.000000	1.000000	
1.900857	2436.771474	2436.771474	-63.228526	-63.228526	3997.846497	3997.846497	89.418639	1.000000	1.000000	1.000000	
2.000874	2433.436860	2433.436860	-66.563140	-66.563140	4430.651645	4430.651645	94.134496	1.000000	1.000000	1.000000	
2.102328	2430.145102	2430.145102	-69.854898	-69.854898	4879.706831	4879.706831	98.789745	1.000000	1.000000	1.000000	
2.200817	2426.771630	2426.771630	-73.228370	-73.228370	5362.394153	5362.394153	103.560554	1.000000	1.000000	1.000000	
2.297548	2423.476151	2423.476151	-76.523849	-76.523849	5855.899470	5855.899470	108.221065	1.000000	1.000000	1.000000	
2.397711	2420.134864	2420.134864	-79.865136	-79.865136	6378.439878	6378.439878	112.946358	1.000000	1.000000	1.000000	
2.497485	2416.810836	2416.810836	-83.189164	-83.189164	6920.437030	6920.437030	117.647244	1.000000	1.000000	1.000000	
2.597723	2413.468630	2413.468630	-86.531370	-86.531370	7487.678037	7487.678037	122.373837	1.000000	1.000000	1.000000	
2.700944	2410.103670	2410.103670	-89.896330	-89.896330	8081.350209	8081.350209	127.132610	1.000000	1.000000	1.000000	
2.800941	2406.772691	2406.772691	-93.227309	-93.227309	8691.331171	8691.331171	131.843325	1.000000	1.000000	1.000000	
2.897829	2403.469748	2403.469748	-96.530252	-96.530252	9318.089511	9318.089511	136.514391	1.000000	1.000000	1.000000	
3.001126	2400.100939	2400.100939	-99.899061	-99.899061	9979.822438	9979.822438	141.278607	1.000000	1.000000	1.000000	
3.100813	2399.435842	2396.775456	-100.564158	-103.224544	10113.149835	10655.306490	144.112652	1.000000	1.000000	1.000000	
3.197710	2398.774539	2393.468942	-101.225461	-106.531058	10246.593874	11348.866323	146.953939	1.000000	1.000000	1.000000	
3.301075	2398.100748	2390.099983	-101.899252	-109.900017	10383.457646	12078.013774	149.871516	1.000000	1.000000	1.000000	
3.400852	2397.435095	2386.771720	-102.564905	-113.228280	10519.559739	12820.643402	152.775008	1.000000	1.000000	1.000000	
3.500934	2396.767672	2383.434604	-103.232328	-116.565396	10656.913604	13587.491648	155.706150	1.000000	1.000000	1.000000	
3.597788	2396.107682	2380.134655	-103.892318	-119.865345	10793.613745	14367.700965	158.623185	1.000000	1.000000	1.000000	
3.700790	2395.434870	2379.461842	-104.565130	-120.538158	10933.866497	14529.447419	159.572284	1.000000	1.000000	1.000000	
3.797384	2394.775312	2378.802285	-105.224688	-121.197715	11072.234999	14688.886188	160.502714	1.000000	1.000000	1.000000	
3.900894	2394.100861	2378.127834	-105.899139	-121.872166	11214.627570	14852.824791	161.454180	1.000000	1.000000	1.000000	
4.000948	2393.435341	2377.462314	-106.564659	-122.537686	11356.026473	15015.484432	162.393075	1.000000	1.000000	1.000000	
4.103672	2392.768470	2376.795443	-107.231530	-123.204557	11498.601066	15179.362939	163.333903	1.000000	1.000000	1.000000	
4.197275	2392.109686	2376.136659	-107.890314	-123.863341	11640.319810	15342.127220	164.263347	1.000000	1.000000	1.000000	
4.300988	2391.434932	2375.461905	-108.565068	-124.538095	11786.373982	15509.737125	165.215348	1.000000	1.000000	1.000000	
4.397833	2390.774793	2374.801765	-109.225207	-125.198235	11930.145932	15674.597925	166.146754	1.000000	1.000000	1.000000	
4.497117	2390.111364	2374.138337	-109.888636	-125.861663	12075.512300	15841.158216	167.082825	1.000000	1.000000	1.000000	
4.597664	2389.441845	2373.468818	-110.558155	-126.531182	12223.105624	16010.140032	168.027515	1.000000	1.000000	1.000000	
4.697451	2388.775162	2372.802135	-111.224838	-127.197865	12370.964653	16179.296963	168.968227	1.000000	1.000000	1.000000	
4.797887	2388.107264	2372.134237	-111.892736	-127.865763	12519.984442	16349.653459	169.910676	1.000000	1.000000	1.000000	
4.897430	2387.443211	2371.470184	-112.556789	-128.529816	12669.030812	16519.913701	170.847723	1.000000	1.000000	1.000000	
4.997456	2386.774898	2370.801871	-113.225102	-129.198129	12819.923765	16692.156614	171.790804	1.000000	1.000000	1.000000	
5.100942	2386.101983	2370.128956	-113.898017	-129.871044	12972.758326	16866.488155	172.740402	1.000000	1.000000	1.000000	
5.197876	2385.442014	2369.468987	-114.557986	-130.531013	13123.532058	17038.345272	173.671752	1.000000	1.000000	1.000000	
5.301365	2384.767397	2368.794370	-115.232603	-131.205630	13278.552765	17214.917340	174.623796	1.000000	1.000000	1.000000	
5.397729	2384.108489	2368.135462	-115.891511	-131.864538	13430.842210	17388.256284	175.553691	1.000000	1.000000	1.000000	
5.500892	2383.434835	2367.461807	-116.565165	-132.538193	13587.437804	17566.372496	176.504420	1.000000	1.000000	1.000000	
5.597469	2382.776047	2366.803020	-117.223953	-133.196980	13741.455242	17741.435608	177.434187	1.000000	1.000000	1.000000	
5.700938	2382.101036	2366.128009	-117.898964	-133.871991	13900.165750	17921.710047	178.386871	1.000000	1.000000	1.000000	
5.797417	2381.442535	2365.469507	-118.557465	-134.530493	14055.872621	18098.453437	179.316274	1.000000	1.000000	1.000000	
5.899914	2380.774679	2364.801652	-119.225321	-135.198348	14214.677106	18278.593263	180.258898	1.000000	1.000000	1.000000	
5.997664	2380.108526	2364.135499	-119.891474	-135.864501	14373.965474	18459.162590	181.199139	1.000000	1.000000	1.000000	
6.097555	2379.447698	2363.474671	-120.552302	-136.525329	14532.857464	18639.165429	182.131883	1.000000	1.000000	1.000000	
6.201036	2378.768222	2362.795195	-121.231778	-137.204805	14697.143956	18825.158499	183.090968	1.000000	1.000000	1.000000	
6.297716	2378.108455	2362.135428	-121.891545	-137.864572	14857.548782	19006.640288	184.022252	1.000000	1.000000	1.000000	
6.400898	2377.434518	2361.461490	-122.565482	-138.538510	15022.297479	19192.918621	184.973555	1.000000	1.000000	1.000000	
6.497343	2376.776110	2360.803083	-123.223890	-139.196917	15184.126977	19375.781632	185.902955	1.000000	1.000000	1.000000	
6.600991	2376.101275	2360.128248	-123.898725	-139.871752	15350.894074	19564.107059	186.855562	1.000000	1.000000	1.000000	
6.700846	2375.435520	2359.462493	-124.564480	-140.537507	15516.309751	19750.790988	187.795369	1.000000	1.000000	1.000000	
6.800824	2374.768999	2358.795972	-125.231001	-141.204028	15682.803640	19938.577587	188.736274	1.000000	1.000000	1.000000	
6.897691	2374.108406	2358.135379	-125.891594	-141.864621	15848.693419	20125.570700	189.668827	1.000000	1.000000	1.000000	
7.000979	2373.435080	2357.462053	-126.564920	-142.537947	16018.678861	20317.066239	190.619372	1.000000	1.000000	1.000000	
7.096629	2372.781061	2356.808034	-127.218939	-143.191966	16184.658314	20503.939017	191.542678	1.000000	1.000000	1.000000	
7.197325	2372.109460	2356.136432	-127.890540	-143.863568	16355.990344	20696.726080	192.490822	1.000000	1.000000	1.000000	
7.299358	2371.446129	2355.473102	-128.553871	-144.526898	16526.097648	20888.024164	193.427304	1.000000	1.000000	1.000000	
7.396646	2370.781422	2354.808395	-129.218578	-145.191605	16697.440887	21080.602180	194.365746	1.000000	1.000000	1.000000	
7.496554	2370.114166	2354.141138	-129.885834	-145.858862	16870.329984	21274.807488	195.307802	1.000000	1.000000	1.000000	
7.600772	2369.435156	2353.462129	-130.564844	-146.537871	17047.178560	21473.347750	196.266468	1.000000	1.000000	1.000000	
7.697238	2368.776210	2352.803182	-131.223790	-147.196818	17219.683169	21666.903088	197.196821	1.000000	1.000000	1.000000	
7.800850	2368.101276	2352.128249	-131.898724	-147.871751	17397.273450	21866.054841	198.149762	1.000000	1.000000	1.000000	
7.897575	2367.441919	2351.468892	-132.558081	-148.531108	17571.644825	22061.490062	199.080725	1.000000	1.000000	1.000000	
7.999917	2366.774633	2350.801606	-133.225367	-149.198394	17748.998509	22260.160914	200.022897	1.000000	1.000000	1.000000	
8.098333	2366.109549	2350.136522	-133.890451	-149.863478	17926.652892	22459.062098	200.961974	1.000000	1.000000	1.000000	
8.197399	2365.442562	2349.469535	-134.557438	-150.530465	18105.704150	22659.420959	201.903752	1.000000	0.000000	0.000000	
8.301011	2364.768599	2348.795572	-135.231401	-151.204428	18287.531822	22862.779087	202.855394	1.000000	0.000000	0.000000	
8.397319	2364.109584	2348.136557	-135.890416	-151.863443	18466.205049	23062.505229	203.785942	1.000000	0.000000	0.000000	
8.501004	2363.435018	2347.461991	-136.564982	-152.538009	18649.994190	23267.844092	204.738463	1.000000	0.000000	0.000000	
8.601176	2362.766748	2346.793721	-137.233252	-153.206279	18832.965374	23472.163869	205.682107	1.000000	0.000000	0.000000	
8.697655	2362.108764	2346.135737	-137.891236	-153.864263	19013.992828	23674.211310	206.611239	1.000000	0.000000	0.000000	
8.801342	2361.434002	2345.460975	-138.565998	-154.539025	19200.535864	23882.310352	207.564077	1.000000	0.000000	0.000000	
8.897343	2360.776364	2344.803337	-139.223636	-155.196663	19383.220704	24086.004110	208.492745	1.000000	0.000000	0.000000	
9.000883	2360.101525	2344.128498	-139.898475	-155.871502	19571.583389	24295.925261	209.445718	1.000000	0.000000	0.000000	
9.101007	2359.435393	2343.462366	-140.564607	-156.537634	19758.408712	24504.030861	210.386405	1.000000	0.000000	0.000000	
9.200767	2358.768983	2342.795956	-141.231017	-157.204044	19946.200025	24713.111332	211.327498	1.000000	0.000000	0.000000	
9.297582	2358.108741	2342.135714	-141.891259	-157.864286	20133.129266	24921.132703	212.259893	1.000000	0.000000	0.000000	
9.400850	2357.434329	2341.461302	-142.565671	-158.538698	20324.970434	25134.518673	213.212310	1.000000	0.000000	0.000000	
9.500647	2356.769263	2340.796236	-143.230737	-159.203764	20515.044084	25345.838577	214.151541	1.000000	0.000000	0.000000	
9.597294	2356.109744	2340.136716	-143.890256	-159.863284	20704.405910	25556.269441	215.082950	1.000000	0.000000	0.000000	
9.701385	2355.433334	2339.460307	-144.566666	-160.539693	20899.520882	25772.993025	216.038223	1.000000	0.000000	0.000000	
9.797367	2354.775992	2338.802965	-145.224008	-161.197035	21090.012532	25984.484165	216.966580	1.000000	0.000000	0.000000	
9.900741	2354.102367	2338.129340	-145.897633	-161.870660	21286.119355	26202.110649	217.917943	1.000000	0.000000	0.000000	
10.000815	2353.435269	2337.462242	-146.564731	-162.537758	21481.220478	26418.522929	218.860100	1.000000	0.000000	0.000000	
10.098500	2352.775488	2336.802461	-147.224512	-163.197539	21675.056793	26633.436616	219.791932	1.000000	0.000000	0.000000	
10.200928	2352.102385	2336.129358	-147.897615	-163.870642	21873.704447	26853.587263	220.742592	1.000000	0.000000	0.000000	
10.297847	2351.441591	2335.468564	-148.558409	-164.531436	22069.600758	27070.593329	221.675876	1.000000	0.000000	0.000000	
10.401184	2350.767949	2334.794922	-149.232051	-165.205078	22270.204958	27292.717737	222.627318	1.000000	0.000000	0.000000	
10.497396	2350.109743	2334.136716	-149.890257	-165.863284	22467.089116	27510.628986	223.556968	1.000000	0.000000	0.000000	
10.606909	2349.435186	2333.462159	-150.564814	-166.537841	22669.763315	27734.852634	224.509724	0.000000	0.000000	0.000000	
10.697653	2348.775572	2332.802545	-151.224428	-167.197455	22868.827531	27954.988893	225.441381	0.000000	0.000000	0.000000	
10.797236	2348.110087	2332.137059	-151.889913	-167.862941	23070.545811	28177.966818	226.381343	0.000000	0.000000	0.000000	
10.900712	2347.435910	2331.462883	-152.564090	-168.537117	23275.801627	28404.759921	227.333591	0.000000	0.000000	0.000000	
10.997780	2346.775133	2330.802106	-153.224867	-169.197894	23477.859851	28627.927354	228.266921	0.000000	0.000000	0.000000	
11.097504	2346.109232	2330.136205	-153.890768	-169.863795	23682.368349	28853.708751	229.207498	0.000000	0.000000	0.000000	
11.197489	2345.441972	2329.468945	-154.558028	-170.531055	23888.184125	29080.840874	230.150005	0.000000	0.000000	0.000000	
11.297381	2344.776533	2328.803506	-155.223467	-171.196494	24094.324727	29308.239618	231.089949	0.000000	0.000000	0.000000	
11.397230	2344.109341	2328.136314	-155.890659	-171.863686	24301.897682	29537.126735	232.032378	0.000000	0.000000	0.000000	
11.500811	2343.435630	2327.462603	-156.564370	-172.537397	24512.401937	29769.153384	232.984024	0.000000	0.000000	0.000000	
11.597320	2342.776453	2326.803426	-157.223547	-173.196574	24719.243745	29997.053299	233.915149	0.000000	0.000000	0.000000	
11.700920	2342.101455	2326.128428	-157.898545	-173.871572	24931.950515	30231.323591	234.868632	0.000000	0.000000	0.000000	
11.800696	2341.436063	2325.463036	-158.563937	-174.536964	25142.522015	30463.151730	235.808553	0.000000	0.000000	0.000000	
11.897631	2340.776467	2324.803440	-159.223533	-175.196560	25352.133438	30693.834650	236.740297	0.000000	0.000000	0.000000	
11.997286	2340.109758	2324.136731	-159.890242	-175.863269	25564.889467	30927.889401	237.682096	0.000000	0.000000	0.000000	
12.098504	2339.443237	2323.470210	-160.556763	-176.529790	25778.474067	31162.766712	238.623638	0.000000	0.000000	0.000000	
12.197244	2338.776729	2322.803702	-161.223271	-177.196298	25992.943030	31398.527974	239.565171	0.000000	0.000000	0.000000	
12.302378	2338.092001	2322.118974	-161.907999	-177.881026	26214.200151	31641.659462	240.532450	0.000000	0.000000	0.000000	
12.397308	2337.443020	2321.469993	-162.556980	-178.530007	26424.771618	31872.963298	241.449239	0.000000	0.000000	0.000000	
12.502209	2336.759413	2320.786386	-163.240587	-179.213614	26647.489342	32117.519591	242.414952	0.000000	0.000000	0.000000	
12.597267	2336.109778	2320.136751	-163.890222	-179.863249	26860.004954	32350.788476	243.332681	0.000000	0.000000	0.000000	
12.700859	2335.435541	2319.462514	-164.564459	-180.537486	27081.461136	32593.783859	244.285171	0.000000	0.000000	0.000000	
12.800733	2334.769251	2318.796224	-165.230749	-181.203776	27301.200338	32834.808393	245.226444	0.000000	0.000000	0.000000	
12.898000	2334.108504	2318.135477	-165.891496	-181.864523	27519.988295	33074.704602	246.159893	0.000000	0.000000	0.000000	
13.001270	2333.434717	2317.461690	-166.565283	-182.538310	27743.993534	33320.234695	247.111773	0.000000	0.000000	0.000000	
13.097841	2332.775074	2316.802046	-167.224926	-183.197954	27964.176008	33561.490170	248.043678	0.000000	0.000000	0.000000	
13.201192	2332.101722	2316.128695	-167.898278	-183.871305	28189.831651	33808.656730	248.994957	0.000000	0.000000	0.000000	
13.300946	2331.435676	2315.462649	-168.564324	-184.537351	28413.931243	34054.033865	249.935922	0.000000	0.000000	0.000000	
13.397239	2330.776598	2314.803570	-169.223402	-185.196430	28636.559946	34297.717533	250.867051	0.000000	0.000000	0.000000	
13.501035	2330.101441	2314.128414	-169.898559	-185.871586	28865.520246	34548.246410	251.820902	0.000000	0.000000	0.000000	
13.600751	2329.436315	2313.463288	-170.563685	-186.536712	29091.970705	34795.945036	252.760590	0.000000	0.000000	0.000000	
13.700866	2328.769135	2312.796108	-171.230865	-187.203892	29320.009017	35045.297100	253.703185	0.000000	0.000000	0.000000	
13.797322	2328.110228	2312.137201	-171.889772	-187.862799	29546.093827	35292.431409	254.634101	0.000000	0.000000	0.000000	
13.900837	2327.435580	2311.462553	-172.564420	-188.537447	29778.478898	35546.368798	255.587260	0.000000	0.000000	0.000000	
13.997307	2326.776061	2310.803034	-173.223939	-189.196966	30006.532981	35795.491919	256.519054	0.000000	0.000000	0.000000	
14.103367	2326.102415	2310.129388	-173.897585	-189.870612	30240.370150	36050.849432	257.470813	0.000000	0.000000	0.000000	
14.200589	2325.436660	2309.463632	-174.563340	-190.536368	30472.359831	36304.107367	258.411430	0.000000	0.000000	0.000000	
14.300621	2324.769339	2308.796312	-175.230661	-191.203688	30705.784585	36558.850381	259.354265	0.000000	0.000000	0.000000	
14.397550	2324.109016	2308.135988	-175.890984	-191.864012	30937.638406	36811.798928	260.287221	0.000000	0.000000	0.000000	
14.500865	2323.435095	2307.462068	-176.564905	-192.537932	31175.165529	37070.855140	261.239393	0.000000	0.000000	0.000000	
14.600922	2322.768301	2306.795274	-177.231699	-193.204726	31411.075177	37328.066243	262.181505	0.000000	0.000000	0.000000	
14.697453	2322.110176	2306.137149	-177.889824	-193.862851	31644.789507	37582.805068	263.111373	0.000000	0.000000	0.000000	
14.800812	2321.435234	2305.462206	-178.564766	-194.537794	31885.375810	37844.953117	264.065009	0.000000	0.000000	0.000000	
14.897407	2320.776595	2304.803568	-179.223405	-195.196432	32121.028763	38101.646960	264.995615	0.000000	0.000000	0.000000	
15.000825	2320.101880	2304.128853	-179.898120	-195.871147	32363.333685	38365.506386	265.948943	0.000000	0.000000	0.000000	
15.100940	2319.435059	2303.462032	-180.564941	-196.537968	32603.697740	38627.172716	266.891121	0.000000	0.000000	0.000000	
15.197368	2318.776849	2302.803822	-181.223151	-197.196178	32841.830454	38886.332657	267.821140	0.000000	0.000000	0.000000	
15.302297	2318.092476	2302.119449	-181.907524	-197.880551	33090.347389	39156.712619	268.788132	0.000000	0.000000	0.000000	
15.397265	2317.443384	2301.470357	-182.556616	-198.529643	33326.918065	39414.019216	269.705279	0.000000	0.000000	0.000000	
15.500875	2316.768536	2300.795509	-183.231464	-199.204491	33573.769517	39682.429407	270.658824	0.000000	0.000000	0.000000	
15.602164	2316.109111	2300.136083	-183.890889	-199.863917	33815.859236	39945.585158	271.590582	0.000000	0.000000	0.000000	
15.697823	2315.443381	2299.470354	-184.556619	-200.529646	34061.145634	40212.138989	272.531254	0.000000	0.000000	0.000000	
15.797284	2314.776432	2298.803405	-185.223568	-201.196595	34307.769985	40480.069713	273.473654	0.000000	0.000000	0.000000	
