AF-MATB V. 3.03
Programmed using MATLAB 7.5.0 and other Custom MATLAB Functions.

William Daniel Miller, Jr.
Air Force Research Laboratory
711th Human Performance Wing
Human Effectiveness Directorate
Applied Neuroscience Branch

RMS Center Coordinate (X,Y) is:	599.500000	565.500000	
Tracking Box X-Axis Lower Limit is:	449.500000	
Tracking Box X-Axis Upper Limit is:	749.500000	
Tracking Box Y-Axis Lower Limit is:	417.500000	
Tracking Box Y-Axis Upper Limit is:	717.500000	


Event Time	X Coordinates	Y Coordinates	X-Axis Difference	Y-Axis Difference	X-Axis Deviation	Y-Axis Deviation	Euclidian Distance From Target	X-Axis In Range?	y-Axis In Range?	Both In Range?
0.108798	595.306923	560.308162	-4.193077	-5.191838	17.581891	26.955183	6.673610	1.000000	1.000000	1.000000	
0.116180	591.174687	555.116324	-8.325313	-10.383676	69.310838	107.820732	13.309078	1.000000	1.000000	1.000000	
0.199643	586.981610	549.924486	-12.518390	-15.575514	156.710078	242.596647	19.982661	1.000000	1.000000	1.000000	
0.303221	582.849374	544.732648	-16.650626	-20.767352	277.243351	431.282928	26.618157	1.000000	1.000000	1.000000	
0.399529	578.656297	539.540809	-20.843703	-25.959191	434.459941	673.879574	33.291733	1.000000	1.000000	1.000000	
0.503001	574.463221	534.348971	-25.036779	-31.151029	626.840313	970.386587	39.965321	1.000000	1.000000	1.000000	
0.599476	570.330984	529.157133	-29.169016	-36.342867	850.831480	1320.803966	46.600809	1.000000	1.000000	1.000000	
0.699670	566.137908	523.965295	-33.362092	-41.534705	1113.029202	1725.131710	53.274393	1.000000	1.000000	1.000000	
0.799437	561.883991	518.773457	-37.616009	-46.726543	1414.964120	2183.369821	59.986115	1.000000	1.000000	1.000000	
0.899353	557.751755	513.581619	-41.748245	-51.918381	1742.915991	2695.518297	66.621575	1.000000	1.000000	1.000000	
0.999324	553.619518	508.389781	-45.880482	-57.110219	2105.018619	3261.577139	73.257053	1.000000	1.000000	1.000000	
1.104352	550.950562	505.361663	-48.549438	-60.138337	2357.047972	3616.619617	77.289505	1.000000	1.000000	1.000000	
1.198884	549.687165	505.958985	-49.812835	-59.541015	2481.318527	3545.132520	77.630220	1.000000	1.000000	1.000000	
1.302918	550.044608	509.816706	-49.455392	-55.683294	2445.835749	3100.629181	74.474593	1.000000	1.000000	1.000000	
1.403129	550.402052	514.131508	-49.097948	-51.368492	2410.608502	2638.721936	71.058641	1.000000	1.000000	1.000000	
1.499841	550.820335	518.446310	-48.679665	-47.053690	2369.709743	2214.049721	67.703467	1.000000	1.000000	1.000000	
1.599088	551.238619	522.761112	-48.261381	-42.738888	2329.160907	1826.612538	64.465289	1.000000	1.000000	1.000000	
1.699694	552.115542	527.075914	-47.384458	-38.424086	2245.286826	1476.410385	61.005715	1.000000	1.000000	1.000000	
1.799522	553.727226	531.329876	-45.772774	-34.170124	2095.146856	1167.597382	57.120436	1.000000	1.000000	1.000000	
1.899660	555.460589	535.583838	-44.039411	-29.916162	1939.469696	894.976762	53.239520	1.000000	1.000000	1.000000	
2.000110	557.133113	539.898640	-42.366887	-25.601360	1794.953135	655.429651	49.501341	1.000000	1.000000	1.000000	
2.104524	558.805636	543.513002	-40.694364	-21.986998	1656.031244	483.428100	46.254290	1.000000	1.000000	1.000000	
2.199816	560.478160	545.603243	-39.021840	-19.896757	1522.704022	395.880921	43.801655	1.000000	1.000000	1.000000	
2.302910	562.029003	546.506325	-37.470997	-18.993675	1404.075606	360.759677	42.009943	1.000000	1.000000	1.000000	
2.400693	563.487807	546.860287	-36.012193	-18.639713	1296.878073	347.438892	40.550178	1.000000	1.000000	1.000000	
2.536937	565.038650	547.092569	-34.461350	-18.407431	1187.584639	338.833512	39.069402	1.000000	1.000000	1.000000	
2.600343	566.589494	547.324851	-32.910506	-18.175149	1083.101436	330.336041	37.595711	1.000000	1.000000	1.000000	
2.702892	568.048297	547.557133	-31.451703	-17.942867	989.209622	321.946480	36.209890	1.000000	1.000000	1.000000	
2.799611	569.446260	547.789415	-30.053740	-17.710585	903.227260	313.664829	34.883980	1.000000	1.000000	1.000000	
2.903411	577.457224	553.972971	-22.042776	-11.527029	485.883977	132.872395	24.874814	1.000000	1.000000	1.000000	
2.999383	585.468187	560.156527	-14.031813	-5.343473	196.891766	28.552699	15.014808	1.000000	1.000000	1.000000	
3.111028	593.357471	566.157564	-6.142529	0.657564	37.730665	0.432390	6.177625	1.000000	1.000000	1.000000	
3.198616	601.368434	571.548640	1.868434	6.048640	3.491047	36.586047	6.330647	1.000000	1.000000	1.000000	
3.299480	609.257718	575.782196	9.757718	10.282196	95.213055	105.723563	14.175211	1.000000	1.000000	1.000000	
3.398965	616.320201	579.376153	16.820201	13.876153	282.919168	192.547615	21.805201	1.000000	1.000000	1.000000	
3.499820	622.526245	581.445989	23.026245	15.945989	530.207943	254.274568	28.008615	1.000000	1.000000	1.000000	
3.607446	628.518568	582.846585	29.018568	17.346585	842.077295	300.904026	33.808007	1.000000	1.000000	1.000000	
3.699998	634.602932	583.606022	35.102932	18.106022	1232.215804	327.828024	39.497390	1.000000	1.000000	1.000000	
3.799496	640.687295	584.365458	41.187295	18.865458	1696.393271	355.905509	45.302304	1.000000	1.000000	1.000000	
3.899876	646.679618	584.421334	47.179618	18.921334	2225.916399	358.016896	50.832404	1.000000	1.000000	1.000000	
3.998980	651.448902	583.252611	51.948902	17.752611	2698.688411	315.155188	54.898484	1.000000	1.000000	1.000000	
4.100455	655.818825	581.686087	56.318825	16.186087	3171.810092	261.989415	58.598631	1.000000	1.000000	1.000000	
4.198956	660.037429	580.058723	60.537429	14.558723	3664.780290	211.956427	62.263446	1.000000	1.000000	1.000000	
4.299522	662.792752	578.431360	63.292752	12.931360	4005.972493	167.220064	64.600252	1.000000	1.000000	1.000000	
4.400001	664.725956	577.048916	65.225956	11.548916	4254.425303	133.377462	66.240492	1.000000	1.000000	1.000000	
4.499527	666.567119	576.583752	67.067119	11.083752	4497.998478	122.849567	67.976820	1.000000	1.000000	1.000000	
4.604528	668.347443	576.669269	68.847443	11.169269	4739.970361	124.752564	69.747566	1.000000	1.000000	1.000000	
4.703264	670.127766	577.213425	70.627766	11.713425	4988.281346	137.204326	71.592497	1.000000	1.000000	1.000000	
4.799826	671.908090	577.880821	72.408090	12.380821	5242.931435	153.284738	73.458942	1.000000	1.000000	1.000000	
4.899625	673.688413	578.638698	74.188413	13.138698	5503.920627	172.625377	75.342856	1.000000	1.000000	1.000000	
4.999162	675.468736	579.398134	75.968736	13.898134	5771.248923	193.158130	77.229574	1.000000	1.000000	1.000000	
5.099981	677.249060	580.310450	77.749060	14.810450	6044.916321	219.349440	79.147115	1.000000	1.000000	1.000000	
5.198893	679.029383	581.711047	79.529383	16.211047	6324.922823	262.798035	81.164776	1.000000	1.000000	1.000000	
5.302913	680.870547	583.111643	81.370547	17.611643	6621.165894	310.169970	83.254645	1.000000	1.000000	1.000000	
5.399312	682.650870	584.451399	83.150870	18.951399	6914.067232	359.155538	85.283192	1.000000	1.000000	1.000000	
5.503232	683.904653	581.680884	84.404653	16.180884	7124.145515	261.821001	85.941646	1.000000	1.000000	1.000000	
5.602868	685.188076	578.849528	85.688076	13.349528	7342.446453	178.209905	86.721718	1.000000	1.000000	1.000000	
5.699337	686.471500	576.018173	86.971500	10.518173	7564.041740	110.631958	87.605215	1.000000	1.000000	1.000000	
5.804395	687.725283	573.430177	88.225283	7.930177	7783.700503	62.887710	88.580970	1.000000	1.000000	1.000000	
5.899419	688.918226	571.146382	89.418226	5.646382	7995.619100	31.881626	89.596321	1.000000	1.000000	1.000000	
5.999041	690.050329	569.168346	90.550329	3.668346	8199.362057	13.456763	90.624604	1.000000	1.000000	1.000000	
6.106963	690.662952	567.433671	91.162952	1.933671	8310.683809	3.739082	91.183457	1.000000	1.000000	1.000000	
6.203351	691.367615	565.698995	91.867615	0.198995	8439.658695	0.039599	91.867831	1.000000	1.000000	1.000000	
6.299354	692.072278	564.025159	92.572278	-1.474841	8569.626681	2.175155	92.584026	1.000000	1.000000	1.000000	
6.399285	692.747301	562.533844	93.247301	-2.966156	8695.059188	8.798082	93.294465	1.000000	1.000000	1.000000	
6.502950	693.330284	561.407568	93.830284	-4.092432	8804.122257	16.747996	93.919488	1.000000	1.000000	1.000000	
6.599176	693.577867	560.404533	94.077867	-5.095467	8850.645139	25.963785	94.215757	1.000000	1.000000	1.000000	
6.699488	693.277891	559.644857	93.777891	-5.855143	8794.292750	34.282696	93.960499	1.000000	1.000000	1.000000	
6.799421	692.946714	559.006862	93.446714	-6.493138	8732.288285	42.160844	93.672030	1.000000	1.000000	1.000000	
6.903040	692.554697	558.308026	93.054697	-7.191974	8659.176579	51.724486	93.332208	1.000000	1.000000	1.000000	
6.999339	692.162680	557.609191	92.662680	-7.890809	8586.372227	62.264871	92.998049	1.000000	1.000000	1.000000	
7.103463	691.831503	556.849515	92.331503	-8.650485	8525.106426	74.830888	92.735847	1.000000	1.000000	1.000000	
7.199557	691.439486	556.150680	91.939486	-9.349320	8452.869083	87.409791	92.413629	1.000000	1.000000	1.000000	
7.320263	691.016269	555.512684	91.516269	-9.987316	8375.227506	99.746479	92.059622	1.000000	1.000000	1.000000	
7.399737	690.502572	554.813849	91.002572	-10.686151	8281.468142	114.193833	91.627845	1.000000	1.000000	1.000000	
7.499462	690.079355	554.175853	90.579355	-11.324147	8204.619600	128.236305	91.284478	1.000000	1.000000	1.000000	
7.600648	689.595298	553.477017	90.095298	-12.022983	8117.162786	144.552109	90.893976	1.000000	1.000000	1.000000	
7.702853	689.172081	552.839022	89.672081	-12.660978	8041.082192	160.300366	90.561485	1.000000	1.000000	1.000000	
7.799631	688.658385	552.140186	89.158385	-13.359814	7949.217534	178.484620	90.153769	1.000000	1.000000	1.000000	
7.899527	688.174328	551.502191	88.674328	-13.997809	7863.136382	195.938661	89.772351	1.000000	1.000000	1.000000	
8.005376	687.690271	550.803355	88.190271	-14.696645	7777.523851	215.991365	89.406461	1.000000	1.000000	1.000000	
8.100393	687.206214	550.104520	87.706214	-15.395480	7692.379943	237.020811	89.047183	1.000000	1.000000	1.000000	
8.199505	686.722157	549.405684	87.222157	-16.094316	7607.704657	259.027000	88.694598	1.000000	1.000000	1.000000	
8.303021	686.086780	548.767689	86.586780	-16.732311	7497.270473	279.970242	88.188665	1.000000	1.000000	1.000000	
8.404081	685.573083	548.129693	86.073083	-17.370307	7408.575635	301.727560	87.808332	1.000000	1.000000	1.000000	
8.500194	684.937706	547.430858	85.437706	-18.069142	7299.601640	326.493907	87.327519	1.000000	1.000000	1.000000	
8.602039	684.363169	546.792862	84.863169	-18.707138	7201.757502	349.957009	86.900601	1.000000	1.000000	1.000000	
8.699767	683.025027	552.458108	83.525027	-13.041892	6976.430166	170.090942	84.537099	1.000000	1.000000	1.000000	
8.799531	681.686885	558.184194	82.186885	-7.315806	6754.684079	53.521013	82.511848	1.000000	1.000000	1.000000	
8.899542	680.348743	563.849440	80.848743	-1.650560	6536.519240	2.724347	80.865590	1.000000	1.000000	1.000000	
8.999026	679.010601	569.453846	79.510601	3.953846	6321.935650	15.632902	79.608847	1.000000	1.000000	1.000000	
9.121179	677.580419	575.179933	78.080419	9.679933	6096.551794	93.701095	78.678160	1.000000	1.000000	1.000000	
9.198945	676.120597	581.088539	76.620597	15.588539	5870.715832	243.002538	78.190270	1.000000	1.000000	1.000000	
9.302878	674.599935	586.997145	75.099935	21.497145	5640.000169	462.127233	78.116115	1.000000	1.000000	1.000000	
9.398730	672.559792	592.905751	73.059792	27.405751	5337.733272	751.075181	78.030817	1.000000	1.000000	1.000000	
9.501905	669.697530	598.814357	70.197530	33.314357	4927.693265	1109.846380	77.701606	1.000000	1.000000	1.000000	
9.598255	666.591908	603.930483	67.091908	38.430483	4501.324150	1476.902029	77.318990	1.000000	1.000000	1.000000	
9.701983	663.455086	607.402369	63.955086	41.902369	4090.253041	1755.808542	76.459542	1.000000	1.000000	1.000000	
9.798298	660.318264	610.293935	60.818264	44.793935	3698.861238	2006.496636	75.533819	1.000000	1.000000	1.000000	
9.901074	657.181442	613.185501	57.681442	47.685501	3327.148741	2273.907040	74.840202	1.000000	1.000000	1.000000	
9.998266	653.983780	615.679267	54.483780	50.179267	2968.482262	2517.958883	74.070515	1.000000	1.000000	1.000000	
10.099484	650.846958	616.887594	51.346958	51.387594	2636.510065	2640.684772	72.644304	1.000000	1.000000	1.000000	
10.198954	647.710136	617.882200	48.210136	52.382200	2324.217174	2743.894841	71.190674	1.000000	1.000000	1.000000	
10.298825	644.757393	618.876806	45.257393	53.376806	2048.231665	2849.083393	69.980819	1.000000	1.000000	1.000000	
10.406852	643.327211	619.871412	43.827211	54.371412	1920.824458	2956.250427	69.836057	1.000000	1.000000	1.000000	
10.498672	642.953759	615.422539	43.453759	49.922539	1888.229196	2492.259886	66.185263	1.000000	1.000000	1.000000	
10.597610	642.825227	611.034506	43.325227	45.534506	1877.075311	2073.391223	62.852737	1.000000	1.000000	1.000000	
10.701699	642.696695	606.585633	43.196695	41.085633	1865.954467	1688.029226	59.615297	1.000000	1.000000	1.000000	
10.798798	642.658643	602.136760	43.158643	36.636760	1862.668466	1342.252172	56.612018	1.000000	1.000000	1.000000	
10.902276	642.681431	597.687887	43.181431	32.187887	1864.635975	1036.060059	53.858110	1.000000	1.000000	1.000000	
10.997797	642.704219	593.207814	43.204219	27.707814	1866.604523	767.722947	51.325700	1.000000	1.000000	1.000000	
11.102385	642.727007	588.758941	43.227007	23.258941	1868.574109	540.978328	49.087192	1.000000	1.000000	1.000000	
11.197828	642.932315	584.278868	43.432315	18.778868	1886.365953	352.645877	47.318198	1.000000	1.000000	1.000000	
11.301763	643.900463	579.982875	44.400463	14.482875	1971.401072	209.753663	46.702834	1.000000	1.000000	1.000000	
11.398554	645.111970	576.267202	45.611970	10.767202	2080.451846	115.932635	46.865600	1.000000	1.000000	1.000000	
11.499573	646.505998	572.858849	47.005998	7.358849	2209.563879	54.152656	47.578530	1.000000	1.000000	1.000000	
11.601731	647.960866	570.062016	48.460866	4.562016	2348.455556	20.811988	48.675122	1.000000	1.000000	1.000000	
11.698206	649.446934	567.510103	49.946934	2.010103	2494.696230	4.040513	49.987366	1.000000	1.000000	1.000000	
11.801710	652.120162	566.329430	52.620162	0.829430	2768.881453	0.687954	52.626699	1.000000	1.000000	1.000000	
11.901519	655.617070	566.916237	56.117070	1.416237	3149.125539	2.005727	56.134938	1.000000	1.000000	1.000000	
11.999478	659.082778	567.716764	59.582778	2.216764	3550.107416	4.914042	59.624001	1.000000	1.000000	1.000000	
12.099620	662.548486	569.309771	63.048486	3.809771	3975.111556	14.514353	63.163486	1.000000	1.000000	1.000000	
12.201960	665.953354	572.242818	66.453354	6.742818	4416.048213	45.465592	66.794564	1.000000	1.000000	1.000000	
12.298820	669.206902	575.968345	69.706902	10.468345	4859.052126	109.586242	70.488569	1.000000	1.000000	1.000000	
12.424425	672.521289	579.785912	73.021289	14.285912	5332.108716	204.087275	74.405618	1.000000	1.000000	1.000000	
12.498349	675.743637	583.541079	76.243637	18.041079	5813.092240	325.480523	78.349044	1.000000	1.000000	1.000000	
12.598223	677.320185	587.358646	77.820185	21.858646	6055.981236	477.800395	80.831811	1.000000	1.000000	1.000000	
12.698373	678.013773	591.023333	78.513773	25.523333	6164.412579	651.440515	82.558180	1.000000	1.000000	1.000000	
12.799520	678.799401	594.505500	79.299401	29.005500	6288.395012	841.319016	84.437634	1.000000	1.000000	1.000000	
12.901990	679.522629	597.560227	80.022629	32.060227	6403.621150	1027.858140	86.206028	1.000000	1.000000	1.000000	
12.998728	681.361600	602.099828	81.861600	36.599828	6701.321589	1339.547374	89.670893	1.000000	1.000000	1.000000	
13.100876	683.445491	604.475708	83.945491	38.975708	7046.845531	1519.105835	92.552425	1.000000	1.000000	1.000000	
13.198853	685.529383	605.450709	86.029383	39.950709	7401.054679	1596.059152	94.853117	1.000000	1.000000	1.000000	
13.298270	687.613274	605.906230	88.113274	40.406230	7763.949031	1632.663406	96.936126	1.000000	1.000000	1.000000	
13.399356	689.697165	605.811071	90.197165	40.311071	8135.528590	1624.982409	98.795298	1.000000	1.000000	1.000000	
13.498280	691.720216	604.889111	92.220216	39.389111	8504.568295	1551.502090	100.279960	1.000000	1.000000	1.000000	
13.601655	693.743268	603.661392	94.243268	38.161392	8881.793474	1456.291845	101.676375	1.000000	1.000000	1.000000	
13.701168	695.766319	602.372833	96.266319	36.872833	9267.204125	1359.605801	103.086420	1.000000	1.000000	1.000000	
13.797609	697.758170	601.084274	98.258170	35.584274	9654.667965	1266.240527	104.503151	1.000000	1.000000	1.000000	
13.898573	699.750021	599.856554	100.250021	34.356554	10050.066747	1180.372827	105.973768	1.000000	1.000000	1.000000	
14.002365	701.681032	598.628835	102.181032	33.128835	10440.963383	1097.519716	107.417331	1.000000	1.000000	1.000000	
14.100213	703.612044	597.340276	104.112044	31.840276	10839.317627	1013.803168	108.872039	1.000000	1.000000	1.000000	
14.198350	705.603895	596.173397	106.103895	30.673397	11258.036500	940.857261	110.448602	1.000000	1.000000	1.000000	
14.301988	708.449066	596.260757	108.949066	30.760757	11869.898995	946.224195	113.208318	1.000000	1.000000	1.000000	
14.404111	711.355077	596.624238	111.855077	31.124238	12511.558313	968.718200	116.104593	1.000000	1.000000	1.000000	
14.498243	714.200248	597.079759	114.700248	31.579759	13156.147006	997.281173	118.968181	1.000000	1.000000	1.000000	
14.601889	717.045420	597.535280	117.545420	32.035280	13816.925697	1026.259144	121.832610	1.000000	1.000000	1.000000	
14.698237	719.890591	599.057840	120.390591	33.557840	14493.894386	1126.128654	124.980091	1.000000	1.000000	1.000000	
14.801465	722.553242	601.372881	123.053242	35.872881	15142.100405	1286.863605	128.175520	1.000000	1.000000	1.000000	
15.016111	715.253766	603.041170	115.753766	37.541170	13398.934416	1409.339480	121.689251	1.000000	1.000000	1.000000	
15.020509	707.954290	604.709460	108.454290	39.209460	11762.333122	1537.381733	115.324390	1.000000	1.000000	1.000000	
15.103640	700.623615	606.377749	101.123615	40.877749	10225.985436	1670.990364	109.073259	1.000000	1.000000	1.000000	
15.203444	693.202459	608.046038	93.702459	42.546038	8780.150783	1810.165374	102.909262	1.000000	1.000000	1.000000	
15.299691	685.140143	609.714328	85.640143	44.214328	7334.234083	1954.906762	96.380189	1.000000	1.000000	1.000000	
15.402887	676.895307	611.382617	77.395307	45.882617	5990.033561	2105.214528	89.973597	1.000000	1.000000	1.000000	
15.502801	668.650471	613.111746	69.150471	47.611746	4781.787675	2266.878368	83.956334	1.000000	1.000000	1.000000	
15.599388	660.497675	614.840875	60.997675	49.340875	3720.716406	2434.521984	78.455327	1.000000	1.000000	1.000000	
15.702881	652.405720	616.448325	52.905720	50.948325	2799.015163	2595.731786	73.448941	1.000000	1.000000	1.000000	
15.802598	644.313764	618.116614	44.813764	52.616614	2008.273420	2768.508062	69.114264	1.000000	1.000000	1.000000	
15.899095	636.221808	619.296623	36.721808	53.796623	1348.491174	2894.076669	65.134997	1.000000	1.000000	1.000000	
16.002535	628.129852	619.105392	28.629852	53.605392	819.668428	2873.538104	60.771758	1.000000	1.000000	1.000000	
16.106446	620.129936	618.912602	20.629936	53.412602	425.594268	2852.906027	57.258190	1.000000	1.000000	1.000000	
16.199272	612.067620	618.566931	12.567620	53.066931	157.945081	2816.099169	54.534799	1.000000	1.000000	1.000000	
16.299497	604.005305	618.130780	4.505305	52.630780	20.297769	2769.999036	52.823260	1.000000	1.000000	1.000000	
16.399782	596.431269	617.571390	-3.068731	52.071390	9.417112	2711.429613	52.161736	1.000000	1.000000	1.000000	
16.506778	589.557673	617.011999	-9.942327	51.511999	98.849870	2653.486026	52.462710	1.000000	1.000000	1.000000	
16.599574	582.805757	616.820768	-16.694243	51.320768	278.697750	2633.821242	53.967759	1.000000	1.000000	1.000000	
16.699796	577.028841	616.629537	-22.471159	51.129537	504.952980	2614.229596	55.849643	1.000000	1.000000	1.000000	
16.798845	572.626285	617.566187	-26.873715	52.066187	722.196542	2710.887796	58.592528	1.000000	1.000000	1.000000	
