AF-MATB V. 3.03
Programmed using MATLAB 7.5.0 and other Custom MATLAB Functions.

William Daniel Miller, Jr.
Air Force Research Laboratory
711th Human Performance Wing
Human Effectiveness Directorate
Applied Neuroscience Branch

RMS Target Value is:	2500.000000	
Main Tank Automation Lower Limit is:	2350.000000	
Main Tank Automation Upper Limit is:	2650.000000	


Event Time	Tank A Value	Tank B Value	Tank A Difference	Tank B Difference	Tank A Deviation	Tank B Deviation	Euclidian Distance From Target	Tank A In Range?	Tank B In Range?	Both In Range?
0.090099	2499.594534	2499.594534	-0.405466	-0.405466	0.164403	0.164403	0.573415	1.000000	1.000000	1.000000	
0.101009	2496.741154	2496.741154	-3.258846	-3.258846	10.620078	10.620078	4.608704	1.000000	1.000000	1.000000	
0.204106	2493.335134	2493.335134	-6.664866	-6.664866	44.420439	44.420439	9.425544	1.000000	1.000000	1.000000	
0.301125	2490.029197	2490.029197	-9.970803	-9.970803	99.416905	99.416905	14.100844	1.000000	1.000000	1.000000	
0.404138	2486.664066	2486.664066	-13.335934	-13.335934	177.847130	177.847130	18.859858	1.000000	1.000000	1.000000	
0.504052	2483.333237	2483.333237	-16.666763	-16.666763	277.780986	277.780986	23.570362	1.000000	1.000000	1.000000	
0.600706	2480.031877	2480.031877	-19.968123	-19.968123	398.725937	398.725937	28.239190	1.000000	1.000000	1.000000	
0.704097	2476.665142	2476.665142	-23.334858	-23.334858	544.515603	544.515603	33.000473	1.000000	1.000000	1.000000	
0.803785	2473.337435	2473.337435	-26.662565	-26.662565	710.892370	710.892370	37.706561	1.000000	1.000000	1.000000	
0.900989	2470.020464	2470.020464	-29.979536	-29.979536	898.772601	898.772601	42.397467	1.000000	1.000000	1.000000	
1.004109	2466.665426	2466.665426	-33.334574	-33.334574	1111.193803	1111.193803	47.142206	1.000000	1.000000	1.000000	
1.103969	2463.331881	2463.331881	-36.668119	-36.668119	1344.550931	1344.550931	51.856551	1.000000	1.000000	1.000000	
1.200532	2460.038519	2460.038519	-39.961481	-39.961481	1596.919943	1596.919943	56.514068	1.000000	1.000000	1.000000	
1.304035	2456.665005	2456.665005	-43.334995	-43.334995	1877.921789	1877.921789	61.284938	1.000000	1.000000	1.000000	
1.403935	2453.337512	2453.337512	-46.662488	-46.662488	2177.387784	2177.387784	65.990723	1.000000	1.000000	1.000000	
1.503991	2450.002491	2450.002491	-49.997509	-49.997509	2499.750867	2499.750867	70.707155	1.000000	1.000000	1.000000	
1.600533	2446.706734	2446.706734	-53.293266	-53.293266	2840.172178	2840.172178	75.368059	1.000000	1.000000	1.000000	
1.704706	2443.326120	2443.326120	-56.673880	-56.673880	3211.928667	3211.928667	80.148970	1.000000	1.000000	1.000000	
1.800486	2440.038233	2440.038233	-59.961767	-59.961767	3595.413539	3595.413539	84.798745	1.000000	1.000000	1.000000	
1.904694	2436.660313	2436.660313	-63.339687	-63.339687	4011.915938	4011.915938	89.575844	1.000000	1.000000	1.000000	
2.000831	2433.366630	2433.366630	-66.633370	-66.633370	4440.005959	4440.005959	94.233815	1.000000	1.000000	1.000000	
2.117140	2430.003146	2430.003146	-69.996854	-69.996854	4899.559600	4899.559600	98.990501	1.000000	1.000000	1.000000	
2.200536	2426.705827	2426.705827	-73.294173	-73.294173	5372.035725	5372.035725	103.653613	1.000000	1.000000	1.000000	
2.304415	2423.332121	2423.332121	-76.667879	-76.667879	5877.963703	5877.963703	108.424755	1.000000	1.000000	1.000000	
2.400838	2420.032921	2420.032921	-79.967079	-79.967079	6394.733792	6394.733792	113.090528	1.000000	1.000000	1.000000	
2.504142	2416.665886	2416.665886	-83.334114	-83.334114	6944.574539	6944.574539	117.852234	1.000000	1.000000	1.000000	
2.603953	2413.336960	2413.336960	-86.663040	-86.663040	7510.482453	7510.482453	122.560046	1.000000	1.000000	1.000000	
2.703865	2410.003586	2410.003586	-89.996414	-89.996414	8099.354475	8099.354475	127.274149	1.000000	1.000000	1.000000	
2.800417	2406.705862	2406.705862	-93.294138	-93.294138	8703.796242	8703.796242	131.937836	1.000000	1.000000	1.000000	
2.904594	2403.326616	2403.326616	-96.673384	-96.673384	9345.743135	9345.743135	136.716810	1.000000	1.000000	1.000000	
3.004378	2399.995402	2399.995402	-100.004598	-100.004598	10000.919590	10000.919590	141.427859	1.000000	1.000000	1.000000	
3.100339	2396.708199	2396.708199	-103.291801	-103.291801	10669.196130	10669.196130	146.076666	1.000000	1.000000	1.000000	
3.203482	2393.356113	2393.356113	-106.643887	-106.643887	11372.918638	11372.918638	150.817231	1.000000	1.000000	1.000000	
3.300401	2390.041408	2390.041408	-109.958592	-109.958592	12090.891864	12090.891864	155.504932	1.000000	1.000000	1.000000	
3.400581	2386.703522	2386.703522	-113.296478	-113.296478	12836.091895	12836.091895	160.225416	1.000000	1.000000	1.000000	
3.504033	2383.331740	2383.331740	-116.668260	-116.668260	13611.482862	13611.482862	164.993835	1.000000	1.000000	1.000000	
3.604014	2380.003734	2380.003734	-119.996266	-119.996266	14399.103883	14399.103883	169.700347	1.000000	1.000000	1.000000	
3.700576	2376.706287	2376.706287	-123.293713	-123.293713	15201.339600	15201.339600	174.363641	1.000000	1.000000	1.000000	
3.804137	2373.333522	2373.333522	-126.666478	-126.666478	16044.396769	16044.396769	179.133452	1.000000	1.000000	1.000000	
3.900775	2370.029296	2370.029296	-129.970704	-129.970704	16892.383960	16892.383960	183.806333	1.000000	1.000000	1.000000	
4.003471	2366.689570	2366.689570	-133.310430	-133.310430	17771.670652	17771.670652	188.529418	1.000000	1.000000	1.000000	
4.106532	2363.333849	2363.333849	-136.666151	-136.666151	18677.636906	18677.636906	193.275125	1.000000	1.000000	1.000000	
4.200577	2360.039332	2360.039332	-139.960668	-139.960668	19588.988616	19588.988616	197.934275	1.000000	1.000000	1.000000	
4.300428	2356.708374	2356.708374	-143.291626	-143.291626	20532.489946	20532.489946	202.644960	1.000000	1.000000	1.000000	
4.404210	2353.334240	2353.334240	-146.665760	-146.665760	21510.845135	21510.845135	207.416707	1.000000	1.000000	1.000000	
4.500976	2350.022401	2350.022401	-149.977599	-149.977599	22493.280162	22493.280162	212.100354	1.000000	1.000000	1.000000	
4.601634	2346.691572	2346.691572	-153.308428	-153.308428	23503.474090	23503.474090	216.810858	0.000000	0.000000	0.000000	
4.703815	2343.334204	2343.334204	-156.665796	-156.665796	24544.171725	24544.171725	221.558894	0.000000	0.000000	0.000000	
4.800476	2340.039601	2340.039601	-159.960399	-159.960399	25587.329136	25587.329136	226.218165	0.000000	0.000000	0.000000	
4.900477	2336.704281	2336.704281	-163.295719	-163.295719	26665.491739	26665.491739	230.935020	0.000000	0.000000	0.000000	
5.003748	2333.339107	2333.339107	-166.660893	-166.660893	27775.853132	27775.853132	235.694095	0.000000	0.000000	0.000000	
5.100783	2330.034582	2330.034582	-169.965418	-169.965418	28888.243243	28888.243243	240.367399	0.000000	0.000000	0.000000	
5.203971	2326.667890	2326.667890	-173.332110	-173.332110	30044.020389	30044.020389	245.128621	0.000000	0.000000	0.000000	
5.304033	2323.334323	2323.334323	-176.665677	-176.665677	31210.761262	31210.761262	249.842996	0.000000	0.000000	0.000000	
5.400452	2320.040277	2320.040277	-179.959723	-179.959723	32385.501856	32385.501856	254.501481	0.000000	0.000000	0.000000	
5.500406	2316.710175	2319.707267	-183.289825	-180.292733	33595.159905	32505.469599	257.100427	0.000000	0.000000	0.000000	
5.604032	2313.336789	2319.369928	-186.663211	-180.630072	34843.154265	32627.222789	259.750605	0.000000	0.000000	0.000000	
5.700418	2310.041438	2319.040393	-189.958562	-180.959607	36084.255144	32746.379275	262.355931	0.000000	0.000000	0.000000	
5.804206	2306.667283	2318.702978	-193.332717	-181.297022	37377.539631	32868.610305	265.039903	0.000000	0.000000	0.000000	
5.903958	2303.338250	2318.370074	-196.661750	-181.629926	38675.843984	32989.429874	267.703705	0.000000	0.000000	0.000000	
6.000449	2300.041509	2318.040400	-199.958491	-181.959600	39983.398154	33109.295920	270.356605	0.000000	0.000000	0.000000	
6.101633	2296.706168	2317.706866	-203.293832	-182.293134	41328.382330	33230.786643	273.055249	0.000000	0.000000	0.000000	
6.204112	2293.338534	2317.370103	-206.661466	-182.629897	42708.961428	33353.679337	275.794563	0.000000	0.000000	0.000000	
6.301165	2290.029262	2317.039176	-209.970738	-182.960824	44087.711007	33474.663276	278.500223	0.000000	0.000000	0.000000	
6.404360	2286.665863	2316.702836	-213.334137	-183.297164	45511.454189	33597.850450	281.263763	0.000000	0.000000	0.000000	
6.500710	2283.369122	2316.373162	-216.630878	-183.626838	46928.937441	33718.815787	283.985481	0.000000	0.000000	0.000000	
6.603969	2280.000697	2316.036319	-219.999303	-183.963681	48399.693249	33842.635879	286.779234	0.000000	0.000000	0.000000	
6.700708	2276.703486	2315.706598	-223.296514	-184.293402	49861.333260	33964.058023	289.526150	0.000000	0.000000	0.000000	
6.803819	2273.339381	2315.370188	-226.660619	-184.629812	51375.036158	34088.167654	292.340903	0.000000	0.000000	0.000000	
6.900225	2270.059342	2315.042184	-229.940658	-184.957816	52872.706133	34209.393836	295.096764	0.000000	0.000000	0.000000	
7.000620	2266.699472	2314.706197	-233.300528	-185.293803	54429.136477	34333.793582	297.931083	0.000000	0.000000	0.000000	
7.107212	2263.228932	2314.359143	-236.771068	-185.640857	56060.538501	34462.527919	300.870514	0.000000	0.000000	0.000000	
7.199379	2260.078275	2314.044077	-239.921725	-185.955923	57562.434328	34579.605346	303.549073	0.000000	0.000000	0.000000	
7.299083	2256.755230	2313.711772	-243.244770	-186.288228	59168.018264	34703.303747	306.384272	0.000000	0.000000	0.000000	
7.402902	2253.372498	2313.373499	-246.627502	-186.626501	60825.124533	34829.450779	309.280739	0.000000	0.000000	0.000000	
7.499284	2250.087049	2313.044954	-249.912951	-186.955046	62456.483087	34952.189108	312.103624	0.000000	0.000000	0.000000	
7.603403	2246.697325	2312.705982	-253.302675	-187.294018	64162.245327	35079.049222	315.025863	0.000000	0.000000	0.000000	
7.702949	2243.368292	2312.373079	-256.631708	-187.626921	65859.833587	35203.861631	317.905167	0.000000	0.000000	0.000000	
7.799256	2240.079250	2312.044174	-259.920750	-187.955826	67558.796410	35327.392381	320.758770	0.000000	0.000000	0.000000	
7.899738	2236.725902	2314.391518	-263.274098	-185.608482	69313.250736	34450.508630	322.123826	0.000000	0.000000	0.000000	
8.002943	2233.368084	2316.741990	-266.631916	-183.258010	71092.578367	33583.498203	323.536824	0.000000	0.000000	0.000000	
8.101479	2230.048376	2319.065786	-269.951624	-180.934214	72873.879434	32737.189727	324.978567	0.000000	0.000000	0.000000	
8.199481	2226.745219	2321.377996	-273.254781	-178.622004	74668.175199	31905.820407	326.456729	0.000000	0.000000	0.000000	
8.300157	2223.386739	2323.728932	-276.613261	-176.271068	76514.896208	31071.489422	328.003637	0.000000	0.000000	0.000000	
8.399647	2220.068335	2326.051815	-279.931665	-173.948185	78361.737249	30257.971085	329.575042	0.000000	0.000000	0.000000	
8.499491	2216.739537	2328.381973	-283.260463	-171.618027	80236.489800	29452.747125	331.193655	0.000000	0.000000	0.000000	
8.599651	2213.403918	2330.716907	-286.596082	-169.283093	82137.314361	28656.765646	332.857447	0.000000	0.000000	0.000000	
8.699470	2210.073794	2333.047993	-289.926206	-166.952007	84057.204720	27872.972585	334.559677	0.000000	0.000000	0.000000	
8.799577	2206.740656	2335.381190	-293.259344	-164.618810	86001.043062	27099.352514	336.304023	0.000000	0.000000	0.000000	
8.903261	2203.363613	2337.745120	-296.636387	-162.254880	87993.146199	26326.646005	338.112100	0.000000	0.000000	0.000000	
8.999853	2200.067663	2340.052285	-299.932337	-159.947715	89959.406670	25583.271537	339.915693	0.000000	0.000000	0.000000	
9.103154	2196.699966	2342.409673	-303.300034	-157.590327	91990.910769	24834.711106	341.797633	0.000000	0.000000	0.000000	
9.202871	2193.373157	2344.738439	-306.626843	-155.261561	94020.020791	24106.152246	343.694884	0.000000	0.000000	0.000000	
9.299920	2190.068268	2347.051861	-309.931732	-152.948139	96057.678262	23393.133117	345.616567	0.000000	0.000000	0.000000	
9.403329	2186.700143	2349.409549	-313.299857	-150.590451	98156.800233	22677.483952	347.612261	0.000000	0.000000	0.000000	
9.502984	2183.369164	2351.741234	-316.630836	-148.258766	100255.086020	21980.661666	349.622293	0.000000	1.000000	0.000000	
9.599464	2180.076572	2354.046049	-319.923428	-145.953951	102350.999586	21302.555929	351.644075	0.000000	1.000000	0.000000	
9.702939	2176.704470	2356.406521	-323.295530	-143.593479	104520.000033	20619.087338	353.750035	0.000000	1.000000	0.000000	
9.802858	2173.372977	2358.738565	-326.627023	-141.261435	106685.211856	19954.793019	355.865150	0.000000	1.000000	0.000000	
9.899922	2170.061139	2361.056852	-329.938861	-138.943148	108859.652317	19305.198305	358.001188	0.000000	1.000000	0.000000	
10.003032	2166.704262	2363.406666	-333.295738	-136.593334	111086.048919	18657.738958	360.199650	0.000000	1.000000	0.000000	
10.105483	2163.373412	2365.738261	-336.626588	-134.261739	113317.460033	18026.214529	362.413679	0.000000	1.000000	0.000000	
10.199418	2160.075837	2368.046564	-339.924163	-131.953436	115548.436827	17411.709388	364.637006	0.000000	1.000000	0.000000	
10.302927	2156.702066	2370.408203	-343.297934	-129.591797	117853.471625	16794.033809	366.943464	0.000000	1.000000	0.000000	
10.402795	2153.374530	2372.737478	-346.625470	-127.262522	120149.216431	16195.749456	369.249192	0.000000	1.000000	0.000000	
10.499335	2150.075693	2375.046664	-349.924307	-124.953336	122447.020370	15613.336213	371.564741	0.000000	1.000000	0.000000	
10.608447	2146.703141	2377.407450	-353.296859	-122.592550	124818.670238	15028.933272	373.962035	0.000000	1.000000	0.000000	
10.702878	2143.372783	2379.738701	-356.627217	-120.261299	127182.972013	14462.779984	376.358542	0.000000	1.000000	0.000000	
10.799420	2140.075657	2382.046689	-359.924343	-117.953311	129545.532672	13912.983504	378.759180	0.000000	1.000000	0.000000	
10.903454	2136.694615	2384.413419	-363.305385	-115.586581	131990.802659	13360.257798	381.249342	0.000000	1.000000	0.000000	
11.001977	2133.403135	2386.717455	-366.596865	-113.282545	134393.261394	12832.935073	383.700660	0.000000	1.000000	0.000000	
11.099474	2130.075770	2389.046610	-369.924230	-110.953390	136843.935676	12310.654760	386.205373	0.000000	1.000000	0.000000	
11.202938	2126.704395	2391.406573	-373.295605	-108.593427	139349.608963	11792.532398	388.770037	0.000000	1.000000	0.000000	
11.302859	2123.373844	2393.737959	-376.626156	-106.262041	141847.261714	11291.621416	391.329635	0.000000	1.000000	0.000000	
11.399369	2120.075627	2396.046710	-379.924373	-103.953290	144342.529141	10806.286447	393.889344	0.000000	1.000000	0.000000	
11.503466	2116.697707	2398.411254	-383.302293	-101.588746	146920.647458	10320.273317	396.536153	0.000000	1.000000	0.000000	
11.603296	2113.367285	2400.742550	-386.632715	-99.257450	149484.856555	9852.041393	399.170262	0.000000	1.000000	0.000000	
11.699172	2110.087331	2403.038517	-389.912669	-96.961483	152031.889238	9401.529122	401.787778	0.000000	1.000000	0.000000	
11.802865	2106.703402	2405.407268	-393.296598	-94.592732	154682.213696	8947.785033	404.512050	0.000000	1.000000	0.000000	
11.903262	2103.370820	2407.740075	-396.629180	-92.259925	157314.706684	8511.893679	407.218124	0.000000	1.000000	0.000000	
11.999426	2100.071940	2410.049291	-399.928060	-89.950709	159942.452979	8091.130042	409.918996	0.000000	1.000000	0.000000	
12.102432	2096.730461	2412.388326	-403.269539	-87.611674	162626.320891	7675.805360	412.676782	0.000000	1.000000	0.000000	
12.199550	2093.411865	2414.711344	-406.588135	-85.288656	165313.911899	7274.154835	415.437200	0.000000	1.000000	0.000000	
12.299292	2090.078619	2417.044616	-409.921381	-82.955384	168035.538696	6881.595735	418.230958	0.000000	1.000000	0.000000	
12.399465	2086.744176	2419.378726	-413.255824	-80.621274	170780.376357	6499.789779	421.046513	0.000000	1.000000	0.000000	
12.499891	2083.392838	2421.724663	-416.607162	-78.275337	173561.527421	6127.028444	423.896869	0.000000	1.000000	0.000000	
12.599403	2080.078133	2424.044956	-419.921867	-75.955044	176334.374018	5769.168738	426.735917	0.000000	1.000000	0.000000	
12.702927	2076.705261	2426.405967	-423.294739	-73.594033	179178.436260	5416.081741	429.644642	0.000000	1.000000	0.000000	
12.802786	2073.375822	2428.736574	-426.624178	-71.263426	182008.189506	5078.475882	432.535161	0.000000	1.000000	0.000000	
12.899878	2070.066143	2431.053349	-429.933857	-68.946651	184843.121667	4753.640637	435.427103	0.000000	1.000000	0.000000	
13.003432	2066.695152	2433.413043	-433.304848	-66.586957	187753.091366	4433.822860	438.391280	0.000000	1.000000	0.000000	
13.100930	2063.392701	2435.724758	-436.607299	-64.275242	190625.933414	4131.306681	441.313086	0.000000	1.000000	0.000000	
13.203292	2060.034734	2438.075335	-439.965266	-61.924665	193569.435242	3834.664088	444.301811	0.000000	1.000000	0.000000	
13.299218	2056.745606	2440.377725	-443.254394	-59.622275	196474.457507	3554.815702	447.246323	0.000000	1.000000	0.000000	
13.403350	2053.365441	2442.743840	-446.634559	-57.256160	199482.429056	3278.267820	450.289570	0.000000	1.000000	0.000000	
13.499289	2050.076784	2445.045900	-449.923216	-54.954100	202430.900275	3019.953063	453.266868	0.000000	1.000000	0.000000	
13.599242	2049.743562	2447.378454	-450.256438	-52.621546	202730.859864	2769.027123	453.320954	0.000000	1.000000	0.000000	
13.702897	2049.406102	2449.740677	-450.593898	-50.259323	203034.861258	2525.999526	453.388201	0.000000	1.000000	0.000000	
13.799783	2049.076735	2452.046240	-450.923265	-47.953760	203331.790487	2299.563078	453.465934	0.000000	1.000000	0.000000	
13.903385	2048.737902	2454.418074	-451.262098	-45.581926	203637.481044	2077.711960	453.558368	0.000000	1.000000	0.000000	
13.999789	2048.409770	2456.715000	-451.590230	-43.285000	203933.735972	1873.591255	453.659925	0.000000	1.000000	0.000000	
14.105886	2048.072816	2459.073675	-451.927184	-40.926325	204238.179467	1674.964059	453.776535	0.000000	1.000000	0.000000	
14.199444	2047.743388	2461.379672	-452.256612	-38.620328	204536.043070	1491.529708	453.902603	0.000000	1.000000	0.000000	
14.303041	2047.406041	2463.741102	-452.593959	-36.258898	204841.291827	1314.707658	454.044050	0.000000	1.000000	0.000000	
14.400032	2047.076264	2466.049540	-452.923736	-33.950460	205139.910500	1152.633765	454.194390	0.000000	1.000000	0.000000	
14.502996	2046.739522	2468.406733	-453.260478	-31.593267	205445.060731	998.134512	454.360204	0.000000	1.000000	0.000000	
14.602904	2046.406570	2470.737400	-453.593430	-29.262600	205746.999971	856.299738	454.536357	0.000000	1.000000	0.000000	
14.699376	2046.076825	2473.045613	-453.923175	-26.954387	206046.248727	726.538980	454.722759	0.000000	1.000000	0.000000	
14.802863	2045.739750	2475.405142	-454.260250	-24.594858	206352.375156	604.907048	454.925579	0.000000	1.000000	0.000000	
14.903217	2045.404926	2477.748908	-454.595074	-22.251092	206656.681438	495.111114	455.139311	0.000000	1.000000	0.000000	
14.999725	2047.704037	2480.048019	-452.295963	-19.951981	204571.638248	398.081561	452.735817	0.000000	1.000000	0.000000	
15.102784	2050.059823	2482.403805	-449.940177	-17.596195	202446.162592	309.626077	450.284120	0.000000	1.000000	0.000000	
15.203303	2052.398978	2484.742960	-447.601022	-15.257040	200346.674555	232.777266	447.860974	0.000000	1.000000	0.000000	
15.299313	2054.702625	2487.046607	-445.297375	-12.953393	198289.751967	167.790391	445.485738	0.000000	1.000000	0.000000	
15.403242	2057.066435	2489.410417	-442.933565	-10.589583	196190.142606	112.139264	443.060133	0.000000	1.000000	0.000000	
15.502778	2059.394094	2491.738075	-440.605906	-8.261925	194133.564616	68.259397	440.683360	0.000000	1.000000	0.000000	
15.603011	2061.702950	2494.046932	-438.297050	-5.953068	192104.303964	35.439021	438.337476	0.000000	1.000000	0.000000	
15.702713	2064.059710	2496.403691	-435.940290	-3.596309	190043.936839	12.933436	435.955124	0.000000	1.000000	0.000000	
15.802708	2066.392727	2498.736709	-433.607273	-1.263291	188015.267180	1.595905	433.609113	0.000000	1.000000	0.000000	
