AF-MATB V. 3.03
Programmed using MATLAB 7.5.0 and other Custom MATLAB Functions.

William Daniel Miller, Jr.
Air Force Research Laboratory
711th Human Performance Wing
Human Effectiveness Directorate
Applied Neuroscience Branch

RMS Target Value is:	2500.000000	
Main Tank Automation Lower Limit is:	2350.000000	
Main Tank Automation Upper Limit is:	2650.000000	


Event Time	Tank A Value	Tank B Value	Tank A Difference	Tank B Difference	Tank A Deviation	Tank B Deviation	Euclidian Distance From Target	Tank A In Range?	Tank B In Range?	Both In Range?
0.093607	2499.606082	2499.606082	-0.393918	-0.393918	0.155171	0.155171	0.557084	1.000000	1.000000	1.000000	
0.106346	2496.586730	2496.586730	-3.413270	-3.413270	11.650409	11.650409	4.827092	1.000000	1.000000	1.000000	
0.198884	2493.432394	2493.432394	-6.567606	-6.567606	43.133443	43.133443	9.287997	1.000000	1.000000	1.000000	
0.301241	2490.096518	2490.096518	-9.903482	-9.903482	98.078948	98.078948	14.005638	1.000000	1.000000	1.000000	
0.402148	2486.732628	2486.732628	-13.267372	-13.267372	176.023171	176.023171	18.762898	1.000000	1.000000	1.000000	
0.498393	2483.437683	2483.437683	-16.562317	-16.562317	274.310343	274.310343	23.422653	1.000000	1.000000	1.000000	
0.600947	2480.102748	2480.102748	-19.897252	-19.897252	395.900639	395.900639	28.138964	1.000000	1.000000	1.000000	
0.701675	2476.736697	2476.736697	-23.263303	-23.263303	541.181257	541.181257	32.899278	1.000000	1.000000	1.000000	
0.798671	2473.434974	2473.434974	-26.565026	-26.565026	705.700632	705.700632	37.568621	1.000000	1.000000	1.000000	
0.900975	2470.101493	2470.101493	-29.898507	-29.898507	893.920743	893.920743	42.282875	1.000000	1.000000	1.000000	
0.998923	2466.761831	2466.761831	-33.238169	-33.238169	1104.775853	1104.775853	47.005869	1.000000	1.000000	1.000000	
1.112663	2463.398475	2463.398475	-36.601525	-36.601525	1339.671619	1339.671619	51.762373	1.000000	1.000000	1.000000	
1.200892	2460.099061	2460.099061	-39.900939	-39.900939	1592.084924	1592.084924	56.428449	1.000000	1.000000	1.000000	
1.301821	2456.737950	2456.737950	-43.262050	-43.262050	1871.604937	1871.604937	61.181777	1.000000	1.000000	1.000000	
1.398416	2453.439563	2453.439563	-46.560437	-46.560437	2167.874311	2167.874311	65.846402	1.000000	1.000000	1.000000	
1.502066	2450.064958	2450.064958	-49.935042	-49.935042	2493.508426	2493.508426	70.618814	1.000000	1.000000	1.000000	
1.600483	2446.750104	2446.750104	-53.249896	-53.249896	2835.551460	2835.551460	75.306726	1.000000	1.000000	1.000000	
1.698538	2443.440425	2443.440425	-56.559575	-56.559575	3198.985564	3198.985564	79.987319	1.000000	1.000000	1.000000	
1.799208	2440.134531	2440.134531	-59.865469	-59.865469	3583.874399	3583.874399	84.662558	1.000000	1.000000	1.000000	
1.901452	2436.761337	2436.761337	-63.238663	-63.238663	3999.128450	3999.128450	89.432974	1.000000	1.000000	1.000000	
1.997946	2433.467633	2433.467633	-66.532367	-66.532367	4426.555832	4426.555832	94.090975	1.000000	1.000000	1.000000	
2.102487	2430.139135	2430.139135	-69.860865	-69.860865	4880.540446	4880.540446	98.798183	1.000000	1.000000	1.000000	
2.200953	2426.769107	2426.769107	-73.230893	-73.230893	5362.763738	5362.763738	103.564123	1.000000	1.000000	1.000000	
2.297478	2423.473157	2423.473157	-76.526843	-76.526843	5856.357695	5856.357695	108.225299	1.000000	1.000000	1.000000	
2.398604	2420.134458	2420.134458	-79.865542	-79.865542	6378.504780	6378.504780	112.946932	1.000000	1.000000	1.000000	
2.518308	2416.116411	2416.116411	-83.883589	-83.883589	7036.456426	7036.456426	118.629309	1.000000	1.000000	1.000000	
2.622364	2412.648738	2412.648738	-87.351262	-87.351262	7630.243037	7630.243037	123.533340	1.000000	1.000000	1.000000	
2.697345	2410.141928	2410.141928	-89.858072	-89.858072	8074.473102	8074.473102	127.078504	1.000000	1.000000	1.000000	
2.800943	2406.766767	2406.766767	-93.233233	-93.233233	8692.435714	8692.435714	131.851702	1.000000	1.000000	1.000000	
2.897753	2403.467824	2403.467824	-96.532176	-96.532176	9318.461095	9318.461095	136.517113	1.000000	1.000000	1.000000	
2.998205	2400.138748	2400.138748	-99.861252	-99.861252	9972.269648	9972.269648	141.225137	1.000000	1.000000	1.000000	
3.100807	2396.771029	2396.771029	-103.228971	-103.228971	10656.220410	10656.220410	145.987811	1.000000	1.000000	1.000000	
3.197330	2393.472877	2393.472877	-106.527123	-106.527123	11348.027960	11348.027960	150.652102	1.000000	1.000000	1.000000	
3.298225	2390.139011	2390.139011	-109.860989	-109.860989	12069.436893	12069.436893	155.366901	1.000000	1.000000	1.000000	
3.400967	2386.770907	2386.770907	-113.229093	-113.229093	12820.827431	12820.827431	160.130119	1.000000	1.000000	1.000000	
3.497770	2383.468735	2383.468735	-116.531265	-116.531265	13579.535829	13579.535829	164.800096	1.000000	1.000000	1.000000	
3.638101	2380.133864	2380.133864	-119.866136	-119.866136	14367.890655	14367.890655	169.516316	1.000000	1.000000	1.000000	
3.697344	2376.808466	2376.808466	-123.191534	-123.191534	15176.153959	15176.153959	174.219138	1.000000	1.000000	1.000000	
3.801553	2373.428558	2373.428558	-126.571442	-126.571442	16020.329949	16020.329949	178.999050	1.000000	1.000000	1.000000	
3.897365	2373.100184	2370.144819	-126.899816	-129.855181	16103.563285	16862.367953	181.565226	1.000000	1.000000	1.000000	
4.001015	2375.463695	2366.768375	-124.536305	-133.231625	15509.291294	17750.665823	182.373126	1.000000	1.000000	1.000000	
4.098759	2377.772506	2369.077187	-122.227494	-130.922813	14939.560218	17140.783040	179.109864	1.000000	1.000000	1.000000	
4.198386	2380.105614	2371.410294	-119.894386	-128.589706	14374.663894	16535.312489	175.812333	1.000000	1.000000	1.000000	
4.301010	2382.464888	2373.769568	-117.535112	-126.230432	13814.502561	15934.121868	172.477895	1.000000	1.000000	1.000000	
4.397401	2384.769598	2376.074278	-115.230402	-123.925722	13278.045620	15357.584551	169.220655	1.000000	1.000000	1.000000	
4.499234	2387.108139	2378.412819	-112.891861	-121.587181	12744.572285	14783.442488	165.915686	1.000000	1.000000	1.000000	
4.597374	2389.437624	2380.742304	-110.562376	-119.257696	12224.039077	14222.398053	162.623606	1.000000	1.000000	1.000000	
4.700769	2391.796464	2383.101144	-108.203536	-116.898856	11708.005235	13665.342472	159.290137	1.000000	1.000000	1.000000	
4.798296	2394.103269	2385.407950	-105.896731	-114.592050	11214.117568	13131.337983	156.030303	1.000000	1.000000	1.000000	
4.900699	2396.462080	2387.766760	-103.537920	-112.233240	10720.100952	12596.300148	152.697089	1.000000	1.000000	1.000000	
4.997405	2398.771520	2390.076200	-101.228480	-109.923800	10247.205206	12083.241762	149.433754	1.000000	1.000000	1.000000	
5.101073	2401.132097	2392.436777	-98.867903	-107.563223	9774.862336	11569.846953	146.098286	1.000000	1.000000	1.000000	
5.200834	2403.461581	2394.766262	-96.538419	-105.233738	9319.666314	11074.139705	142.806884	1.000000	1.000000	1.000000	
5.297486	2405.769749	2397.074429	-94.230251	-102.925571	8879.340228	10593.673107	139.545739	1.000000	1.000000	1.000000	
5.438067	2408.104099	2399.408779	-91.895901	-100.591221	8444.856685	10118.593730	136.247754	1.000000	1.000000	1.000000	
5.497456	2410.436083	2401.740764	-89.563917	-98.259236	8021.695191	9654.877533	132.953273	1.000000	1.000000	1.000000	
5.601108	2412.798696	2404.103376	-87.201304	-95.896624	7604.067448	9196.162446	129.615701	1.000000	1.000000	1.000000	
5.699008	2415.106070	2406.410751	-84.893930	-93.589249	7206.979323	8758.947608	126.356349	1.000000	1.000000	1.000000	
5.800964	2417.464132	2408.768812	-82.535868	-91.231188	6812.169508	8323.129590	123.025603	1.000000	1.000000	1.000000	
5.897620	2419.769949	2411.074630	-80.230051	-88.925370	6436.861009	7907.721451	119.768871	1.000000	1.000000	1.000000	
5.998339	2422.106545	2413.411225	-77.893455	-86.588775	6067.390378	7497.615936	116.468907	1.000000	1.000000	1.000000	
6.107680	2424.445071	2415.749751	-75.554929	-84.250249	5708.547291	7098.104381	113.166478	1.000000	1.000000	1.000000	
6.197508	2426.773972	2418.078652	-73.226028	-81.921348	5362.051201	6711.107218	109.877925	1.000000	1.000000	1.000000	
6.298149	2429.106181	2420.410861	-70.893819	-79.589139	5025.933581	6334.430991	106.585011	1.000000	1.000000	1.000000	
6.400670	2431.462327	2422.767007	-68.537673	-77.232993	4697.412669	5964.935199	103.258645	1.000000	1.000000	1.000000	
6.497349	2433.770060	2425.074741	-66.229940	-74.925259	4386.404921	5613.794488	100.000997	1.000000	1.000000	1.000000	
6.598234	2436.104111	2427.408791	-63.895889	-72.591209	4082.684679	5269.483619	96.706609	1.000000	1.000000	1.000000	
6.700834	2438.462936	2429.767616	-61.537064	-70.232384	3786.810257	4932.587717	93.377717	1.000000	1.000000	1.000000	
6.797481	2440.769577	2432.074257	-59.230423	-67.925743	3508.243042	4613.906544	90.122969	1.000000	1.000000	1.000000	
6.898272	2443.104151	2434.408831	-56.895849	-65.591169	3237.137629	4302.201391	86.829367	1.000000	1.000000	1.000000	
7.000690	2445.460911	2436.765591	-54.539089	-63.234409	2974.512283	3998.590492	83.505106	1.000000	1.000000	1.000000	
7.097695	2447.772087	2439.076768	-52.227913	-60.923232	2727.754882	3711.640251	80.245842	1.000000	1.000000	1.000000	
7.199810	2450.155283	2441.459964	-49.844717	-58.540036	2484.495798	3426.935866	76.885835	1.000000	1.000000	1.000000	
7.332334	2453.239063	2444.543743	-46.760937	-55.456257	2186.585273	3075.396447	72.539518	1.000000	1.000000	1.000000	
7.397573	2454.772637	2446.077317	-45.227363	-53.922683	2045.514406	2907.655748	70.378762	1.000000	1.000000	1.000000	
7.497760	2457.104127	2448.408808	-42.895873	-51.591192	1840.055913	2661.651143	67.094762	1.000000	1.000000	1.000000	
7.600387	2459.461800	2450.766480	-40.538200	-49.233520	1643.345683	2423.939480	63.775271	1.000000	1.000000	1.000000	
7.697450	2461.773845	2453.078525	-38.226155	-46.921475	1461.238958	2201.624816	60.521598	1.000000	1.000000	1.000000	
7.797766	2464.103344	2455.408025	-35.896656	-44.591975	1288.569900	1988.444271	57.245211	1.000000	1.000000	1.000000	
7.900273	2466.459176	2457.763856	-33.540824	-42.236144	1124.986907	1783.891866	53.934022	1.000000	1.000000	1.000000	
7.997196	2468.769589	2460.074269	-31.230411	-39.925731	975.338590	1594.063987	50.689275	1.000000	1.000000	1.000000	
8.101187	2471.105630	2462.410310	-28.894370	-37.589690	834.884615	1412.984759	47.411701	1.000000	1.000000	1.000000	
8.197901	2473.438857	2464.743538	-26.561143	-35.256462	705.494312	1243.018147	44.141958	1.000000	1.000000	1.000000	
8.304953	2475.797069	2467.101749	-24.202931	-32.898251	585.781887	1082.294916	40.842096	1.000000	1.000000	1.000000	
8.398228	2478.102781	2469.407462	-21.897219	-30.592538	479.488186	935.903398	37.621690	1.000000	1.000000	1.000000	
8.500839	2480.460948	2471.765628	-19.539052	-28.234372	381.774556	797.179743	34.335904	1.000000	1.000000	1.000000	
8.597788	2482.773083	2474.077763	-17.226917	-25.922237	296.766682	671.962369	31.124412	1.000000	1.000000	1.000000	
8.698568	2485.106504	2476.411185	-14.893496	-23.588815	221.816215	556.432207	27.897104	1.000000	1.000000	1.000000	
8.832396	2487.461093	2478.765774	-12.538907	-21.234226	157.224185	450.892373	24.660019	1.000000	1.000000	1.000000	
8.897545	2489.769186	2481.073866	-10.230814	-18.926134	104.669555	358.198532	21.514369	1.000000	1.000000	1.000000	
8.998127	2492.102727	2483.407408	-7.897273	-16.592592	62.366914	275.314115	18.376099	1.000000	1.000000	1.000000	
9.100909	2494.463020	2485.767700	-5.536980	-14.232300	30.658150	202.558359	15.271428	1.000000	1.000000	1.000000	
9.197376	2496.769661	2488.074341	-3.230339	-11.925659	10.435093	142.221343	12.355421	1.000000	1.000000	1.000000	
9.298407	2499.104145	2490.408825	-0.895855	-9.591175	0.802556	91.990629	9.632922	1.000000	1.000000	1.000000	
9.400680	2501.459991	2492.764672	1.459991	-7.235328	2.131575	52.349974	7.381162	1.000000	1.000000	1.000000	
9.497442	2503.768938	2495.073618	3.768938	-4.926382	14.204890	24.269240	6.202752	1.000000	1.000000	1.000000	
9.598184	2506.104799	2497.409480	6.104799	-2.590520	37.268574	6.710796	6.631694	1.000000	1.000000	1.000000	
9.700880	2508.462801	2499.767482	8.462801	-0.232518	71.619004	0.054065	8.465995	1.000000	1.000000	1.000000	
9.797442	2510.768978	2502.073658	10.768978	2.073658	115.970886	4.300059	10.966811	1.000000	1.000000	1.000000	
9.898613	2513.103403	2504.408083	13.103403	4.408083	171.699159	19.431195	13.824990	1.000000	1.000000	1.000000	
10.000933	2515.460536	2506.765217	15.460536	6.765217	239.028182	45.768157	16.875910	1.000000	1.000000	1.000000	
10.098606	2517.768943	2509.073624	17.768943	9.073624	315.735353	82.330651	19.951592	1.000000	1.000000	1.000000	
10.198621	2520.106811	2511.411492	20.106811	11.411492	404.283855	130.222140	23.119386	1.000000	1.000000	1.000000	
10.332469	2522.460816	2513.765497	22.460816	13.765497	504.488264	189.488897	26.343446	1.000000	1.000000	1.000000	
10.397405	2524.768714	2516.073395	24.768714	16.073395	613.489216	258.354023	29.526992	1.000000	1.000000	1.000000	
10.498581	2527.115893	2518.420574	27.115893	18.420574	735.271669	339.317536	32.780927	1.000000	1.000000	1.000000	
10.601188	2529.463895	2520.768576	29.463895	20.768576	868.121136	431.333744	36.047953	1.000000	1.000000	1.000000	
10.697761	2531.774264	2523.078944	31.774264	23.078944	1009.603836	532.637663	39.271383	1.000000	1.000000	1.000000	
10.798151	2534.102551	2525.407231	34.102551	25.407231	1162.983970	645.527397	42.526596	1.000000	1.000000	1.000000	
10.900909	2536.462648	2527.767329	36.462648	27.767329	1329.524735	771.024555	45.831750	1.000000	1.000000	1.000000	
10.997516	2538.769933	2530.074613	38.769933	30.074613	1503.107705	904.482372	49.067200	1.000000	1.000000	1.000000	
11.098484	2541.113953	2532.418634	41.113953	32.418634	1690.357149	1050.967807	52.357664	1.000000	1.000000	1.000000	
11.197532	2543.436417	2534.741097	43.436417	34.741097	1886.722325	1206.943852	55.620735	1.000000	1.000000	1.000000	
11.298472	2545.770677	2537.075357	45.770677	37.075357	2094.954872	1374.582127	58.902776	1.000000	1.000000	1.000000	
11.399854	2548.103066	2539.407746	48.103066	39.407746	2313.904933	1552.970457	62.184205	1.000000	1.000000	1.000000	
11.500888	2550.462684	2541.767365	50.462684	41.767365	2546.482519	1744.512765	65.505689	1.000000	1.000000	1.000000	
11.597921	2552.777274	2544.081955	52.777274	44.081955	2785.440667	1943.218719	68.765248	1.000000	1.000000	1.000000	
11.699426	2555.105950	2546.410631	55.105950	46.410631	3036.665770	2153.946653	72.045905	1.000000	1.000000	1.000000	
11.800742	2557.462425	2548.767106	57.462425	48.767106	3301.930338	2378.230614	75.366843	1.000000	1.000000	1.000000	
12.010098	2559.769306	2551.073986	59.769306	51.073986	3572.369912	2608.552064	78.618840	1.000000	1.000000	1.000000	
12.026113	2562.698388	2554.003068	62.698388	54.003068	3931.087852	2916.331393	82.749134	1.000000	1.000000	1.000000	
12.098484	2564.458469	2555.763149	64.458469	55.763149	4154.894218	3109.528826	85.231585	1.000000	1.000000	1.000000	
12.201842	2566.819734	2558.124415	66.819734	58.124415	4464.876891	3378.447585	88.562546	1.000000	1.000000	1.000000	
12.299348	2569.127782	2560.432463	69.127782	60.432463	4778.650280	3652.082545	91.819022	1.000000	1.000000	1.000000	
12.401823	2571.484272	2562.788953	71.484272	62.788953	5110.001182	3942.452579	95.144384	1.000000	1.000000	1.000000	
12.498838	2573.793697	2565.098378	73.793697	65.098378	5445.509782	4237.798800	98.403804	1.000000	1.000000	1.000000	
12.599289	2576.125188	2567.429868	76.125188	67.429868	5795.044249	4546.787155	101.694795	1.000000	1.000000	1.000000	
12.698256	2578.454568	2569.759248	78.454568	69.759248	6155.119214	4866.352716	104.983198	1.000000	1.000000	1.000000	
12.801952	2580.820788	2572.125469	80.820788	72.125469	6531.999800	5202.083218	108.323972	1.000000	1.000000	1.000000	
12.899513	2583.127354	2574.432035	83.127354	74.432035	6910.157004	5540.127765	111.580844	1.000000	1.000000	1.000000	
13.002528	2585.492407	2576.797087	85.492407	76.797087	7308.951624	5897.792607	114.920600	1.000000	1.000000	1.000000	
13.098693	2587.795096	2579.099776	87.795096	79.099776	7707.978814	6256.774568	118.172558	1.000000	1.000000	1.000000	
13.203200	2590.235326	2581.540007	90.235326	81.540007	8142.414112	6648.772694	121.619023	1.000000	1.000000	1.000000	
13.301785	2592.486055	2583.790736	92.486055	83.790736	8553.670399	7020.887368	124.798068	1.000000	1.000000	1.000000	
13.422468	2595.354749	2586.659430	95.354749	86.659430	9092.528244	7509.856786	128.850243	1.000000	1.000000	1.000000	
13.499296	2597.127136	2588.431816	97.127136	88.431816	9433.680463	7820.186078	131.353974	1.000000	1.000000	1.000000	
13.609638	2599.485736	2590.790417	99.485736	90.790417	9897.411728	8242.899768	134.685974	1.000000	1.000000	1.000000	
13.698258	2601.792242	2593.096923	101.792242	93.096923	10361.660610	8667.037035	137.944546	1.000000	1.000000	1.000000	
13.799067	2604.126143	2595.430823	104.126143	95.430823	10842.253671	9107.042071	141.241976	1.000000	1.000000	1.000000	
13.901545	2606.481480	2597.786161	106.481480	97.786161	11338.305671	9562.133249	144.569841	1.000000	1.000000	1.000000	
13.999575	2608.793690	2600.098370	108.793690	100.098370	11836.066975	10019.683751	147.836906	1.000000	1.000000	1.000000	
14.098510	2611.126782	2602.431463	111.126782	102.431463	12349.161740	10492.204550	151.133604	1.000000	1.000000	1.000000	
14.202155	2613.494559	2604.799240	113.494559	104.799240	12881.015028	10982.880679	154.479435	1.000000	1.000000	1.000000	
14.298335	2615.793491	2607.098171	115.793491	107.098171	13408.132526	11470.018291	157.728091	1.000000	1.000000	1.000000	
14.399519	2618.128245	2609.432925	118.128245	109.432925	13954.282225	11975.565126	161.027474	1.000000	1.000000	1.000000	
14.502005	2620.486441	2611.791122	120.486441	111.791122	14516.982557	12497.254912	164.360085	1.000000	1.000000	1.000000	
14.598907	2622.798666	2614.103346	122.798666	114.103346	15079.512346	13019.573640	167.627820	1.000000	1.000000	1.000000	
14.698996	2625.129049	2616.433729	125.129049	116.433729	15657.278828	13556.813275	170.921304	1.000000	1.000000	1.000000	
14.801820	2627.483817	2618.788498	127.483817	118.788498	16252.123645	14110.707162	174.249335	1.000000	1.000000	1.000000	
14.898600	2629.794530	2621.099210	129.794530	121.099210	16846.619956	14665.018705	177.515179	1.000000	1.000000	1.000000	
14.999136	2632.125077	2623.429758	132.125077	123.429758	17457.036032	15234.905072	180.809129	1.000000	1.000000	1.000000	
15.101825	2634.482720	2625.787400	134.482720	125.787400	18085.601953	15822.470079	184.141446	1.000000	1.000000	1.000000	
15.197890	2636.777654	2628.082335	136.777654	128.082335	18708.126739	16405.084488	187.385195	1.000000	1.000000	1.000000	
15.300951	2639.133516	2630.438196	139.133516	130.438196	19358.135181	17014.122996	190.715123	1.000000	1.000000	1.000000	
15.406711	2641.461623	2632.766303	141.461623	132.766303	20011.390800	17626.891340	194.005882	1.000000	1.000000	1.000000	
15.498347	2643.792126	2635.096806	143.792126	135.096806	20676.175391	18251.147001	197.300082	1.000000	1.000000	1.000000	
15.602979	2646.152642	2637.457323	146.152642	137.457323	21360.594906	18894.515620	200.636763	1.000000	1.000000	1.000000	
15.698317	2648.459298	2639.763979	148.459298	139.763979	22040.163242	19533.969737	203.897359	1.000000	1.000000	1.000000	
15.801800	2650.818707	2642.123388	150.818707	142.123388	22746.282493	20199.057356	207.232574	0.000000	1.000000	0.000000	
15.901261	2653.137459	2644.442139	153.137459	144.442139	23451.081255	20863.531550	210.510363	0.000000	1.000000	0.000000	
16.004008	2655.482467	2646.787147	155.482467	146.787147	24174.797519	21546.466622	213.825312	0.000000	1.000000	0.000000	
16.098957	2657.799587	2649.104267	157.799587	149.104267	24900.709511	22232.082423	217.100880	0.000000	1.000000	0.000000	
16.200754	2660.127200	2651.431880	160.127200	151.431880	25640.720159	22931.614386	220.391321	0.000000	0.000000	0.000000	
16.299603	2662.462672	2653.767353	162.462672	153.767353	26394.119937	23644.398805	223.692912	0.000000	0.000000	0.000000	
