AF-MATB V. 3.03
Programmed using MATLAB 7.5.0 and other Custom MATLAB Functions.

William Daniel Miller, Jr.
Air Force Research Laboratory
711th Human Performance Wing
Human Effectiveness Directorate
Applied Neuroscience Branch

RMS Center Coordinate (X,Y) is:	599.500000	565.500000	
Tracking Box X-Axis Lower Limit is:	449.500000	
Tracking Box X-Axis Upper Limit is:	749.500000	
Tracking Box Y-Axis Lower Limit is:	417.500000	
Tracking Box Y-Axis Upper Limit is:	717.500000	


Event Time	X Coordinates	Y Coordinates	X-Axis Difference	Y-Axis Difference	X-Axis Deviation	Y-Axis Deviation	Euclidian Distance From Target	X-Axis In Range?	y-Axis In Range?	Both In Range?
0.099597	600.185238	573.188965	0.685238	7.688965	0.469551	59.120190	7.719439	1.000000	1.000000	1.000000	
0.108281	600.830956	580.796811	1.330956	15.296811	1.771445	233.992423	15.354604	1.000000	1.000000	1.000000	
0.198398	601.516194	588.404656	2.016194	22.904656	4.065040	524.623281	22.993223	1.000000	1.000000	1.000000	
0.302112	602.161913	596.093622	2.661913	30.593622	7.085779	935.969692	30.709208	1.000000	1.000000	1.000000	
0.401921	602.807631	603.782587	3.307631	38.282587	10.940421	1465.556483	38.425212	1.000000	1.000000	1.000000	
0.498378	603.453349	611.471553	3.953349	45.971553	15.628968	2113.383652	46.141225	1.000000	1.000000	1.000000	
0.601045	604.099067	619.079398	4.599067	53.579398	21.151418	2870.751898	53.776420	1.000000	1.000000	1.000000	
0.698956	604.784305	626.687244	5.284305	61.187244	27.923882	3743.878769	61.415003	1.000000	1.000000	1.000000	
0.801313	602.771782	635.126831	3.271782	69.626831	10.704559	4847.895527	69.703659	1.000000	1.000000	1.000000	
0.898335	600.759259	643.566418	1.259259	78.066418	1.585734	6094.365542	78.076573	1.000000	1.000000	1.000000	
1.001984	598.786256	651.315444	-0.713744	85.815444	0.509430	7364.290514	85.818413	1.000000	1.000000	1.000000	
1.104139	596.773733	657.722871	-2.726267	92.222871	7.432531	8505.058025	92.263159	1.000000	1.000000	1.000000	
1.198850	594.800730	663.396058	-4.699270	97.896058	22.083137	9583.638266	98.008782	1.000000	1.000000	1.000000	
1.302048	593.235407	667.232605	-6.264593	101.732605	39.245123	10349.523016	101.925307	1.000000	1.000000	1.000000	
1.433054	592.441764	669.111872	-7.058236	103.611872	49.818693	10735.420115	103.852004	1.000000	1.000000	1.000000	
1.498301	591.567001	670.991139	-7.932999	105.491139	62.932470	11128.380504	105.789002	1.000000	1.000000	1.000000	
1.602233	590.977198	672.870406	-8.522802	107.370406	72.638151	11528.404181	107.708135	1.000000	1.000000	1.000000	
1.698618	590.428995	674.668553	-9.071005	109.168553	82.283128	11917.773060	109.544768	1.000000	1.000000	1.000000	
1.798512	597.634297	669.853023	-1.865703	104.353023	3.480847	10889.553420	104.369700	1.000000	1.000000	1.000000	
1.901450	604.839599	665.567893	5.339599	100.067893	28.511319	10013.583142	100.210251	1.000000	1.000000	1.000000	
1.998293	612.044901	661.732042	12.544901	96.232042	157.374542	9260.605960	97.046280	1.000000	1.000000	1.000000	
2.115592	619.250203	658.058432	19.750203	92.558432	390.070519	8567.063313	94.642136	1.000000	1.000000	1.000000	
2.198311	626.455505	654.426421	26.955505	88.926421	726.599248	7907.908440	92.922052	1.000000	1.000000	1.000000	
2.339972	634.028967	650.752811	34.528967	85.252811	1192.249557	7268.041801	91.979842	1.000000	1.000000	1.000000	
2.399050	641.725149	647.079201	42.225149	81.579201	1782.963198	6655.165990	91.859290	1.000000	1.000000	1.000000	
2.501946	651.418131	643.609430	51.918131	78.109430	2695.492310	6101.083106	93.790060	1.000000	1.000000	1.000000	
2.598974	658.692414	634.884659	59.192414	69.384659	3503.741920	4814.230892	91.202921	1.000000	1.000000	1.000000	
2.698865	666.049898	626.078767	66.549898	60.578767	4428.888912	3669.787070	89.992644	1.000000	1.000000	1.000000	
2.801937	673.284661	617.353996	73.784661	51.853996	5444.176265	2688.836908	90.183220	1.000000	1.000000	1.000000	
2.944184	680.558945	608.629225	81.058945	43.129225	6570.552562	1860.130019	91.818749	1.000000	1.000000	1.000000	
2.998256	687.793709	599.904453	88.293709	34.404453	7795.778964	1183.666402	94.759935	1.000000	1.000000	1.000000	
3.101909	684.219230	594.722498	84.719230	29.222498	7177.347876	853.954372	89.617533	1.000000	1.000000	1.000000	
3.198535	680.074831	590.152062	80.574831	24.652062	6492.303362	607.724170	84.261661	1.000000	1.000000	1.000000	
3.298835	675.439552	585.991387	75.939552	20.491387	5766.815554	419.896927	78.655658	1.000000	1.000000	1.000000	
3.399372	670.519313	581.830711	71.019313	16.330711	5043.742837	266.692126	72.872731	1.000000	1.000000	1.000000	
3.499099	665.557474	577.670036	66.057474	12.170036	4363.589908	148.109767	67.169187	1.000000	1.000000	1.000000	
3.620611	658.116275	574.118800	58.616275	8.618800	3435.867745	74.283715	59.246531	1.000000	1.000000	1.000000	
3.698407	649.254437	570.690285	49.754437	5.190285	2475.503960	26.939054	50.024424	1.000000	1.000000	1.000000	
3.801919	638.483158	567.384489	38.983158	1.884489	1519.686587	3.551299	39.028680	1.000000	1.000000	1.000000	
3.899009	626.419559	565.691834	26.919559	0.191834	724.662652	0.036800	26.920242	1.000000	1.000000	1.000000	
3.999089	614.316440	564.040778	14.816440	-1.459222	219.526897	2.129328	14.888124	1.000000	1.000000	1.000000	
4.103981	602.213321	562.348123	2.713321	-3.151877	7.362112	9.934328	4.158899	1.000000	1.000000	1.000000	
4.197905	590.149722	560.655468	-9.350278	-4.844532	87.427690	23.469493	10.530773	1.000000	1.000000	1.000000	
4.298155	578.208844	558.557212	-21.291156	-6.942788	453.313338	48.202299	22.394545	1.000000	1.000000	1.000000	
4.401582	566.349085	556.051277	-33.150915	-9.448723	1098.983175	89.278365	34.471170	1.000000	1.000000	1.000000	
4.498301	553.583638	556.503929	-45.916362	-8.996071	2108.312276	80.929298	46.789332	1.000000	1.000000	1.000000	
4.611360	545.042672	555.935300	-54.457328	-9.564700	2965.600611	91.483478	55.290904	1.000000	1.000000	1.000000	
4.698240	537.071625	555.285552	-62.428375	-10.214448	3897.302000	104.334946	63.258493	1.000000	1.000000	1.000000	
4.798007	531.507138	554.635804	-67.992862	-10.864196	4623.029223	118.030759	68.855356	1.000000	1.000000	1.000000	
4.901460	527.818812	555.005255	-71.681188	-10.494745	5138.192737	110.139663	72.445375	1.000000	1.000000	1.000000	
4.998116	524.375925	556.190067	-75.124075	-9.309933	5643.626610	86.674850	75.698755	1.000000	1.000000	1.000000	
5.097994	521.176399	557.988479	-78.323601	-7.511521	6134.586532	56.422950	78.682968	1.000000	1.000000	1.000000	
5.201333	520.981246	561.376445	-78.518754	-4.123555	6165.194702	17.003710	78.626957	1.000000	1.000000	1.000000	
5.297824	521.559854	565.373850	-77.940146	-0.126150	6074.666402	0.015914	77.940248	1.000000	1.000000	1.000000	
5.417997	523.933501	570.226136	-75.566499	4.726136	5710.295730	22.336360	75.714147	1.000000	1.000000	1.000000	
5.499075	527.652909	576.459542	-71.847091	10.959542	5162.004511	120.111551	72.678168	1.000000	1.000000	1.000000	
5.601772	531.698876	583.830707	-67.801124	18.330707	4596.992366	336.014828	70.235370	1.000000	1.000000	1.000000	
5.699333	535.744844	591.322513	-63.755156	25.822513	4064.719927	666.802173	68.786060	1.000000	1.000000	1.000000	
5.798002	539.749211	599.180399	-59.750789	33.680399	3570.156731	1134.369249	68.589547	1.000000	1.000000	1.000000	
5.901243	543.795179	607.443884	-55.704821	41.943884	3103.027081	1759.289428	69.730313	1.000000	1.000000	1.000000	
5.998442	557.361054	607.145784	-42.138946	41.645784	1775.690781	1734.371351	59.245777	1.000000	1.000000	1.000000	
6.121793	570.069969	607.579844	-29.430031	42.079844	866.126741	1770.713300	51.350171	1.000000	1.000000	1.000000	
6.198028	577.764004	608.176144	-21.735996	42.676144	472.453540	1821.253299	47.892660	1.000000	1.000000	1.000000	
6.304061	584.316118	608.814044	-15.183882	43.314044	230.550259	1876.106443	45.898330	1.000000	1.000000	1.000000	
6.401785	590.418953	609.410344	-9.081047	43.910344	82.465409	1928.118349	44.839533	1.000000	1.000000	1.000000	
6.497594	595.991388	610.006644	-3.508612	44.506644	12.310357	1980.841402	44.644728	1.000000	1.000000	1.000000	
6.601481	601.197743	610.644545	1.697743	45.144545	2.882331	2038.029898	45.176457	1.000000	1.000000	1.000000	
6.700606	604.300256	622.784713	4.800256	57.284713	23.042456	3281.538331	57.485483	1.000000	1.000000	1.000000	
6.798334	607.198929	634.883281	7.698929	69.383281	59.273501	4814.039722	69.809120	1.000000	1.000000	1.000000	
6.897872	609.812641	647.023450	10.312641	81.523450	106.350571	6646.072847	82.173131	1.000000	1.000000	1.000000	
7.001248	611.937554	659.122018	12.437554	93.622018	154.692752	8765.082267	94.444561	1.000000	1.000000	1.000000	
7.098115	613.817027	671.220586	14.317027	105.720586	204.977258	11176.842401	106.685611	1.000000	1.000000	1.000000	
7.198069	621.487171	676.992275	21.987171	111.492275	483.435710	12430.527275	113.639619	1.000000	1.000000	1.000000	
7.301097	628.221316	682.763963	28.721316	117.263963	824.913999	13750.836914	120.730075	1.000000	1.000000	1.000000	
7.397672	634.793221	684.596131	35.293221	119.096131	1245.611429	14183.888325	124.215537	1.000000	1.000000	1.000000	
7.496961	641.365125	684.273419	41.865125	118.773419	1752.688720	14107.124979	125.935752	1.000000	1.000000	1.000000	
7.601587	648.018150	683.012627	48.518150	117.512627	2354.010877	13809.217435	127.134686	1.000000	1.000000	1.000000	
7.698194	654.712775	678.977115	55.212775	113.477115	3048.450478	12877.055573	126.196300	1.000000	1.000000	1.000000	
7.798632	647.875583	668.914011	48.375583	103.414011	2340.196987	10694.457594	114.169412	1.000000	1.000000	1.000000	
7.901261	641.119510	657.382427	41.619510	91.882427	1732.183654	8442.380300	100.869044	1.000000	1.000000	1.000000	
7.997854	635.218318	645.239322	35.718318	79.739322	1275.798273	6358.359533	87.373668	1.000000	1.000000	1.000000	
8.102873	629.317126	633.015098	29.817126	67.515098	889.061027	4558.288491	73.806162	1.000000	1.000000	1.000000	
8.197421	626.149054	620.871994	26.649054	55.371994	710.172098	3066.057733	61.451036	1.000000	1.000000	1.000000	
8.304836	626.924894	624.786554	27.424894	59.286554	752.124830	3514.895499	65.322434	1.000000	1.000000	1.000000	
8.398599	624.328822	619.615610	24.828822	54.115610	616.470417	2928.499245	59.539648	1.000000	1.000000	1.000000	
8.501166	621.568430	615.465946	22.068430	49.965946	487.015614	2496.595746	54.622444	1.000000	1.000000	1.000000	
8.598107	617.788838	612.454042	18.288838	46.954042	334.481603	2204.682035	50.390114	1.000000	1.000000	1.000000	
8.697057	614.009246	609.768698	14.509246	44.268698	210.518224	1959.717588	46.585790	1.000000	1.000000	1.000000	
8.835137	610.188054	607.488953	10.688054	41.988953	114.234501	1763.072214	43.327898	1.000000	1.000000	1.000000	
8.897483	610.588083	602.466787	11.088083	36.966787	122.945582	1366.543364	38.593898	1.000000	1.000000	1.000000	
8.997731	610.948592	597.646381	11.448592	32.146381	131.070252	1033.389820	34.124186	1.000000	1.000000	1.000000	
9.101187	610.982540	592.988215	11.482540	27.488215	131.848736	755.601961	29.790111	1.000000	1.000000	1.000000	
9.198429	610.974889	588.452769	11.474889	22.952769	131.673084	526.829595	25.661307	1.000000	1.000000	1.000000	
9.299916	609.498758	584.607883	9.998758	19.107883	99.975163	365.111178	21.565861	1.000000	1.000000	1.000000	
9.397903	606.681027	582.306356	7.181027	16.806356	51.567147	282.453616	18.276235	1.000000	1.000000	1.000000	
9.498729	603.821696	581.103070	4.321696	15.603070	18.677053	243.455801	16.190517	1.000000	1.000000	1.000000	
9.597926	601.003964	580.224264	1.503964	14.724264	2.261909	216.803953	14.800874	1.000000	1.000000	1.000000	
9.698570	603.057117	591.784417	3.557117	26.284417	12.653082	690.870556	26.524020	1.000000	1.000000	1.000000	
9.798220	605.110270	603.344569	5.610270	37.844569	31.475125	1432.211412	38.258156	1.000000	1.000000	1.000000	
9.897207	608.342782	614.904722	8.842782	49.404722	78.194796	2440.826520	50.189853	1.000000	1.000000	1.000000	
10.001326	611.575295	626.383754	12.075295	60.883754	145.812743	3706.831519	62.069673	1.000000	1.000000	1.000000	
10.099211	614.807807	637.943907	15.307807	72.443907	234.328964	5248.119613	74.043559	1.000000	1.000000	1.000000	
10.198140	619.182240	649.504059	19.682240	84.004059	387.390565	7056.681960	86.279039	1.000000	1.000000	1.000000	
10.334415	624.902432	660.983092	25.402432	95.483092	645.283572	9117.020801	98.804374	1.000000	1.000000	1.000000	
10.397862	630.949185	672.543244	31.449185	107.043244	989.051236	11458.256133	111.567501	1.000000	1.000000	1.000000	
10.502191	638.179458	684.022277	38.679458	118.522277	1496.100435	14047.530083	124.674097	1.000000	1.000000	1.000000	
10.601738	646.632770	695.582429	47.132770	130.082429	2221.498017	16921.438401	138.358001	1.000000	1.000000	1.000000	
10.697170	655.208803	707.061462	55.708803	141.561462	3103.470694	20039.647459	152.128624	1.000000	1.000000	1.000000	
10.798687	656.062368	718.779712	56.562368	153.279712	3199.301423	23494.670150	163.382899	1.000000	0.000000	0.000000	
10.901193	661.630674	705.359846	62.130674	139.859846	3860.220668	19560.776661	153.039202	1.000000	1.000000	1.000000	
10.997416	668.094146	703.658231	68.594146	138.158231	4705.156810	19087.696852	154.249323	1.000000	1.000000	1.000000	
11.072041	4.000000	
11.100440	674.557617	701.103816	75.057617	135.603816	5633.645879	18388.394895	154.990454	1.000000	1.000000	1.000000	
11.197132	681.102209	693.266201	81.602209	127.766201	6658.920437	16324.202029	151.601855	1.000000	1.000000	1.000000	
11.302397	687.442960	679.269705	87.942960	113.769705	7733.964212	12943.545860	143.796767	1.000000	1.000000	1.000000	
11.397968	697.331248	665.809745	97.831248	100.309745	9570.953117	10062.045024	140.117801	1.000000	1.000000	1.000000	
11.500036	707.219536	649.945305	107.719536	84.445305	11603.498507	7131.009612	136.874059	1.000000	1.000000	1.000000	
11.597204	717.107824	632.735105	117.607824	67.235105	13831.600383	4520.559410	135.470144	1.000000	1.000000	1.000000	
11.698283	726.996113	615.441706	127.496113	49.941706	16255.258745	2494.173951	136.928568	1.000000	1.000000	1.000000	
11.800467	736.722161	598.148306	137.222161	32.648306	18829.921425	1065.911856	141.052590	1.000000	1.000000	1.000000	
12.005570	746.244369	580.938106	146.744369	15.438106	21533.909835	238.335105	147.554210	1.000000	1.000000	1.000000	
12.010512	748.065236	561.251012	148.565236	-4.248988	22071.629363	18.053897	148.625984	1.000000	1.000000	1.000000	
12.097739	749.314103	542.094319	149.814103	-23.405681	22444.265487	547.825911	151.631433	1.000000	1.000000	1.000000	
12.200802	750.236410	524.568345	150.736410	-40.931655	22721.465344	1675.400346	156.194961	0.000000	1.000000	0.000000	
12.297372	751.077597	507.368932	151.577597	-58.131068	22975.767971	3379.221062	162.342197	0.000000	1.000000	0.000000	
12.399178	751.877184	490.169519	152.377184	-75.330481	23218.806277	5674.681420	169.980845	0.000000	1.000000	0.000000	
12.497526	752.718371	472.847385	153.218371	-92.652615	23475.869300	8584.507018	179.054116	0.000000	1.000000	0.000000	
12.597408	753.517958	455.729092	154.017958	-109.770908	23721.531490	12049.652272	189.132715	0.000000	1.000000	0.000000	
12.700327	754.359145	438.446478	154.859145	-127.053522	23981.354909	16142.597331	200.309641	0.000000	1.000000	0.000000	
12.797614	751.596512	431.524471	152.096512	-133.975529	23133.348918	17949.442415	202.688903	0.000000	1.000000	0.000000	
12.900496	748.792278	424.806303	149.292278	-140.693697	22288.184367	19794.716322	205.141173	1.000000	1.000000	1.000000	
12.997343	746.152365	418.780776	146.652365	-146.719224	21506.916100	21526.530824	207.445046	1.000000	1.000000	1.000000	
13.102002	743.551971	412.917488	144.051971	-152.582512	20750.970426	23281.422998	209.838970	1.000000	0.000000	0.000000	
13.197626	740.912058	408.000000	141.412058	-157.500000	19997.370074	24806.250000	211.668656	1.000000	0.000000	0.000000	
13.301318	751.899787	408.000000	152.399787	-157.500000	23225.695229	24806.250000	219.161916	0.000000	0.000000	0.000000	
13.397561	762.927037	408.000000	163.427037	-157.500000	26708.396506	24806.250000	226.968382	0.000000	0.000000	0.000000	
13.513465	773.954287	408.000000	174.454287	-157.500000	30434.298258	24806.250000	235.033079	0.000000	0.000000	0.000000	
13.601009	784.492737	408.000000	184.992737	-157.500000	34222.312659	24806.250000	242.957944	0.000000	0.000000	0.000000	
13.697641	788.882707	408.000000	189.382707	-157.500000	35865.809533	24806.250000	246.316990	0.000000	0.000000	0.000000	
13.797338	792.297156	408.000000	192.797156	-157.500000	37170.743474	24806.250000	248.951789	0.000000	0.000000	0.000000	
13.901380	793.741297	408.476151	194.241297	-157.023849	37729.681612	24656.489285	249.772238	0.000000	0.000000	0.000000	
13.997706	790.555358	410.822221	191.055358	-154.677779	36502.150007	23925.215263	245.819782	0.000000	0.000000	0.000000	
14.098342	784.078860	415.891012	184.578860	-149.608988	34069.355407	22382.849363	237.596727	0.000000	0.000000	0.000000	
14.200889	777.521241	422.908762	178.021241	-142.591238	31691.562136	20332.261056	228.087315	0.000000	1.000000	0.000000	
14.297942	770.637062	431.958673	171.137062	-133.541327	29287.893917	17833.286036	217.074135	0.000000	1.000000	0.000000	
14.397336	763.671763	441.618024	164.171763	-123.881976	26952.367729	15346.744098	205.667479	0.000000	1.000000	0.000000	
14.497939	756.666944	451.277374	157.166944	-114.222626	24701.448281	13046.808267	194.289106	0.000000	1.000000	0.000000	
14.597616	749.701645	460.936725	150.201645	-104.563275	22560.534186	10933.478544	183.013695	0.000000	1.000000	0.000000	
14.696948	742.736346	470.596075	143.236346	-94.903925	20516.650868	9006.754929	171.823764	1.000000	1.000000	1.000000	
14.801134	732.720517	486.633113	133.220517	-78.866887	17747.706236	6219.985869	154.815025	1.000000	1.000000	1.000000	
14.897837	722.665168	502.751271	123.165168	-62.748729	15169.658723	3937.403032	138.228296	1.000000	1.000000	1.000000	
14.997297	712.609820	518.788308	113.109820	-46.711692	12793.831291	2181.982135	122.375706	1.000000	1.000000	1.000000	
15.100844	702.554471	534.825346	103.054471	-30.674654	10620.223941	940.934394	107.522827	1.000000	1.000000	1.000000	
15.197638	692.538642	550.862384	93.038642	-14.637616	8656.188884	214.259809	94.183059	1.000000	1.000000	1.000000	
15.298030	682.522813	566.899421	83.022813	1.399421	6892.787483	1.958380	83.034606	1.000000	1.000000	1.000000	
15.409248	676.124104	582.936459	76.624104	17.436459	5871.253340	304.030108	78.582972	1.000000	1.000000	1.000000	
15.498694	671.959315	598.931897	72.459315	33.431897	5250.352375	1117.691728	79.800026	1.000000	1.000000	1.000000	
15.597220	658.339878	605.301738	58.839878	39.801738	3462.131301	1584.178356	71.037382	1.000000	1.000000	1.000000	
15.700879	644.639322	611.713179	45.139322	46.213179	2037.558361	2135.657944	64.600436	1.000000	1.000000	1.000000	
15.797657	630.938765	618.124621	31.438765	52.624621	988.395936	2769.350690	61.300462	1.000000	1.000000	1.000000	
15.896761	617.238208	624.494462	17.738208	58.994462	314.644025	3480.346523	61.603495	1.000000	1.000000	1.000000	
16.000817	603.496051	628.751023	3.996051	63.251023	15.968425	4000.691914	63.377128	1.000000	1.000000	1.000000	
16.098322	589.672774	628.215264	-9.827226	62.715264	96.574363	3933.204371	63.480538	1.000000	1.000000	1.000000	
16.200990	575.930618	622.464945	-23.569382	56.964945	555.515787	3245.005015	61.648364	1.000000	1.000000	1.000000	
16.302788	562.635661	614.145827	-36.864339	48.645827	1358.979507	2366.416458	61.036022	1.000000	1.000000	1.000000	
16.398252	549.584064	604.888628	-49.915936	39.388628	2491.600671	1551.464012	63.585098	1.000000	1.000000	1.000000	
16.498198	538.726867	594.246149	-60.773133	28.746149	3693.373678	826.341093	67.228824	1.000000	1.000000	1.000000	
16.597626	528.462033	587.827318	-71.037967	22.327318	5046.392764	498.509143	74.464098	1.000000	1.000000	1.000000	
16.698403	519.089519	581.489607	-80.410481	15.989607	6465.845497	255.667545	81.984834	1.000000	1.000000	1.000000	
