AF-MATB V. 3.03
Programmed using MATLAB 7.5.0 and other Custom MATLAB Functions.

William Daniel Miller, Jr.
Air Force Research Laboratory
711th Human Performance Wing
Human Effectiveness Directorate
Applied Neuroscience Branch

RMS Target Value is:	2500.000000	
Main Tank Automation Lower Limit is:	2350.000000	
Main Tank Automation Upper Limit is:	2650.000000	


Event Time	Tank A Value	Tank B Value	Tank A Difference	Tank B Difference	Tank A Deviation	Tank B Deviation	Euclidian Distance From Target	Tank A In Range?	Tank B In Range?	Both In Range?
0.094977	2499.569770	2499.569770	-0.430230	-0.430230	0.185098	0.185098	0.608437	1.000000	1.000000	1.000000	
0.106856	2496.547809	2496.547809	-3.452191	-3.452191	11.917622	11.917622	4.882135	1.000000	1.000000	1.000000	
0.199297	2493.413276	2493.413276	-6.586724	-6.586724	43.384933	43.384933	9.315034	1.000000	1.000000	1.000000	
0.302986	2490.039698	2490.039698	-9.960302	-9.960302	99.207624	99.207624	14.085995	1.000000	1.000000	1.000000	
0.399336	2486.747105	2486.747105	-13.252895	-13.252895	175.639214	175.639214	18.742423	1.000000	1.000000	1.000000	
0.503317	2483.367625	2483.367625	-16.632375	-16.632375	276.635908	276.635908	23.521731	1.000000	1.000000	1.000000	
0.602677	2480.041778	2480.041778	-19.958222	-19.958222	398.330610	398.330610	28.225188	1.000000	1.000000	1.000000	
0.699121	2476.746748	2476.746748	-23.253252	-23.253252	540.713714	540.713714	32.885064	1.000000	1.000000	1.000000	
0.802558	2473.373106	2473.373106	-26.626894	-26.626894	708.991496	708.991496	37.656115	1.000000	1.000000	1.000000	
0.902416	2470.044864	2470.044864	-29.955136	-29.955136	897.310156	897.310156	42.362959	1.000000	1.000000	1.000000	
0.999258	2466.747439	2466.747439	-33.252561	-33.252561	1105.732810	1105.732810	47.026223	1.000000	1.000000	1.000000	
1.099585	2463.404463	2463.404463	-36.595537	-36.595537	1339.233323	1339.233323	51.753905	1.000000	1.000000	1.000000	
1.199400	2460.073249	2460.073249	-39.926751	-39.926751	1594.145443	1594.145443	56.464953	1.000000	1.000000	1.000000	
1.303335	2456.701553	2456.701553	-43.298447	-43.298447	1874.755551	1874.755551	61.233252	1.000000	1.000000	1.000000	
1.399681	2453.406009	2453.406009	-46.593991	-46.593991	2170.999975	2170.999975	65.893854	1.000000	1.000000	1.000000	
1.502729	2450.044471	2450.044471	-49.955529	-49.955529	2495.554899	2495.554899	70.647787	1.000000	1.000000	1.000000	
1.599348	2446.741849	2446.741849	-53.258151	-53.258151	2836.430656	2836.430656	75.318400	1.000000	1.000000	1.000000	
1.702939	2443.372890	2443.372890	-56.627110	-56.627110	3206.629612	3206.629612	80.082827	1.000000	1.000000	1.000000	
1.802885	2440.039195	2440.039195	-59.960805	-59.960805	3595.298133	3595.298133	84.797384	1.000000	1.000000	1.000000	
1.899688	2436.740508	2436.740508	-63.259492	-63.259492	4001.763319	4001.763319	89.462431	1.000000	1.000000	1.000000	
1.999245	2433.414448	2433.414448	-66.585552	-66.585552	4433.635750	4433.635750	94.166191	1.000000	1.000000	1.000000	
2.116250	2430.040399	2430.040399	-69.959601	-69.959601	4894.345769	4894.345769	98.937817	1.000000	1.000000	1.000000	
2.199783	2426.740750	2426.740750	-73.259250	-73.259250	5366.917751	5366.917751	103.604225	1.000000	1.000000	1.000000	
2.303281	2423.365867	2423.365867	-76.634133	-76.634133	5872.790366	5872.790366	108.377030	1.000000	1.000000	1.000000	
2.402771	2420.040299	2420.040299	-79.959701	-79.959701	6393.553862	6393.553862	113.080094	1.000000	1.000000	1.000000	
2.499346	2416.746102	2416.746102	-83.253898	-83.253898	6931.211454	6931.211454	117.738791	1.000000	1.000000	1.000000	
2.602711	2413.373636	2413.373636	-86.626364	-86.626364	7504.126918	7504.126918	122.508179	1.000000	1.000000	1.000000	
2.702473	2410.046186	2410.046186	-89.953814	-89.953814	8091.688672	8091.688672	127.213904	1.000000	1.000000	1.000000	
2.799177	2406.748461	2406.748461	-93.251539	-93.251539	8695.849475	8695.849475	131.877591	1.000000	1.000000	1.000000	
2.902725	2403.373172	2403.373172	-96.626828	-96.626828	9336.743877	9336.743877	136.650971	1.000000	1.000000	1.000000	
3.002614	2400.041274	2400.041274	-99.958726	-99.958726	9991.746967	9991.746967	141.362986	1.000000	1.000000	1.000000	
3.099693	2396.738973	2396.738973	-103.261027	-103.261027	10662.839779	10662.839779	146.033145	1.000000	1.000000	1.000000	
3.199478	2393.412249	2393.412249	-106.587751	-106.587751	11360.948562	11360.948562	150.737842	1.000000	1.000000	1.000000	
3.299264	2390.077592	2390.077592	-109.922408	-109.922408	12082.935695	12082.935695	155.453760	1.000000	1.000000	1.000000	
3.402711	2386.707093	2386.707093	-113.292907	-113.292907	12835.282665	12835.282665	160.220365	1.000000	1.000000	1.000000	
3.499164	2383.412705	2383.412705	-116.587295	-116.587295	13592.597360	13592.597360	164.879334	1.000000	1.000000	1.000000	
3.603003	2380.040902	2380.040902	-119.959098	-119.959098	14390.185294	14390.185294	169.647784	1.000000	1.000000	1.000000	
3.699298	2376.742963	2376.742963	-123.257037	-123.257037	15192.297144	15192.297144	174.311773	1.000000	1.000000	1.000000	
3.799298	2373.410551	2373.410551	-126.589449	-126.589449	16024.888477	16024.888477	179.024515	1.000000	1.000000	1.000000	
3.900832	2370.055536	2370.055536	-129.944464	-129.944464	16885.563839	16885.563839	183.769224	1.000000	1.000000	1.000000	
4.002963	2366.712859	2366.712859	-133.287141	-133.287141	17765.461962	17765.461962	188.496483	1.000000	1.000000	1.000000	
4.100298	2363.412761	2363.412761	-136.587239	-136.587239	18656.073972	18656.073972	193.163526	1.000000	1.000000	1.000000	
4.199288	2362.745585	2360.076885	-137.254415	-139.923115	18838.774335	19578.478242	196.003195	1.000000	1.000000	1.000000	
4.302703	2362.071918	2356.708546	-137.928082	-143.291454	19024.155921	20532.440917	198.888403	1.000000	1.000000	1.000000	
4.399162	2361.413228	2353.415098	-138.586772	-146.584902	19206.293355	21487.133495	201.726118	1.000000	1.000000	1.000000	
4.502765	2360.738457	2350.041242	-139.261543	-149.958758	19393.777418	22487.629219	204.649473	1.000000	1.000000	1.000000	
4.599245	2360.079665	2346.747281	-139.920335	-153.252719	19577.700251	23486.395942	207.518906	1.000000	0.000000	0.000000	
4.699191	2359.413157	2343.414741	-140.586843	-156.585259	19764.660526	24518.943379	210.436698	1.000000	0.000000	0.000000	
4.802654	2358.739023	2340.044071	-141.260977	-159.955929	19954.663724	25585.899259	213.402350	1.000000	0.000000	0.000000	
4.898738	2358.084627	2336.772094	-141.915373	-163.227906	20139.973007	26643.349232	216.294527	1.000000	0.000000	0.000000	
4.999101	2357.413671	2333.417314	-142.586329	-166.582686	20330.861169	27749.791435	219.273009	1.000000	0.000000	0.000000	
5.102715	2356.738485	2330.041383	-143.261515	-169.958617	20523.861675	28885.931578	222.283138	1.000000	0.000000	0.000000	
5.199041	2356.079941	2329.382839	-143.920059	-170.617161	20712.983404	29110.215744	223.211109	1.000000	0.000000	0.000000	
5.298361	2355.418005	2328.720903	-144.581995	-171.279097	20903.953243	29336.529119	224.143888	1.000000	0.000000	0.000000	
5.399243	2354.745552	2328.048450	-145.254448	-171.951550	21098.854660	29567.335635	225.091515	1.000000	0.000000	0.000000	
5.501754	2354.077970	2327.380868	-145.922030	-172.619132	21293.238699	29797.364658	226.032306	1.000000	0.000000	0.000000	
5.599707	2353.411886	2326.714784	-146.588114	-173.285216	21488.075189	30027.766203	226.971014	1.000000	0.000000	0.000000	
5.699272	2352.745592	2326.048490	-147.254408	-173.951510	21683.860738	30259.127998	227.910045	1.000000	0.000000	0.000000	
5.802651	2352.072168	2325.375066	-147.927832	-174.624934	21882.643544	30493.867742	228.859152	1.000000	0.000000	0.000000	
5.899141	2351.413273	2324.716171	-148.586727	-175.283829	22078.015448	30724.420811	229.787807	1.000000	0.000000	0.000000	
6.002542	2350.739293	2324.042191	-149.260707	-175.957809	22278.758668	30961.150658	230.737750	1.000000	0.000000	0.000000	
6.100069	2350.079868	2323.382766	-149.920132	-176.617234	22476.046043	31193.647515	231.667204	1.000000	0.000000	0.000000	
6.202854	2349.405473	2322.708371	-150.594527	-177.291629	22678.711595	31432.321847	232.617784	0.000000	0.000000	0.000000	
6.302587	2348.739624	2322.042521	-151.260376	-177.957479	22879.701477	31668.864224	233.556344	0.000000	0.000000	0.000000	
6.399254	2348.079702	2321.382600	-151.920298	-178.617400	23079.776864	31904.175583	234.486572	0.000000	0.000000	0.000000	
6.502692	2347.405658	2320.708556	-152.594342	-179.291444	23285.033184	32145.421956	235.436733	0.000000	0.000000	0.000000	
6.602577	2346.739373	2320.042270	-153.260627	-179.957730	23488.819939	32384.784500	236.375981	0.000000	0.000000	0.000000	
6.699123	2346.079900	2319.382798	-153.920100	-180.617202	23691.397094	32622.573649	237.305648	0.000000	0.000000	0.000000	
6.802591	2345.405715	2318.708613	-154.594285	-181.291387	23899.392963	32866.567107	238.256081	0.000000	0.000000	0.000000	
6.899461	2344.745481	2318.048379	-155.254519	-181.951621	24103.965533	33106.392321	239.186868	0.000000	0.000000	0.000000	
7.002666	2344.071865	2317.374763	-155.928135	-182.625237	24313.583294	33351.977298	240.136546	0.000000	0.000000	0.000000	
7.099167	2343.414074	2316.716971	-156.585926	-183.283029	24519.152333	33592.668582	241.063935	0.000000	0.000000	0.000000	
7.202784	2342.738712	2316.041610	-157.261288	-183.958390	24731.112663	33840.689302	242.016119	0.000000	0.000000	0.000000	
7.302671	2342.072880	2315.375778	-157.927120	-184.624222	24940.975258	34086.103478	242.954890	0.000000	0.000000	0.000000	
7.399187	2341.413386	2314.716284	-158.586614	-185.283716	25149.714039	34330.055396	243.884746	0.000000	0.000000	0.000000	
7.502880	2340.739077	2314.041975	-159.260923	-185.958025	25364.041607	34580.387175	244.835514	0.000000	0.000000	0.000000	
7.598648	2340.085610	2313.388507	-159.914390	-186.611493	25572.612210	34823.849140	245.756915	0.000000	0.000000	0.000000	
7.699566	2339.412596	2312.715494	-160.587404	-187.284506	25788.314213	35075.486159	246.705899	0.000000	0.000000	0.000000	
7.799278	2338.745887	2312.048785	-161.254113	-187.951215	26002.888852	35325.659195	247.646014	0.000000	0.000000	0.000000	
7.902580	2338.072964	2311.375861	-161.927036	-188.624139	26220.365069	35579.065632	248.594913	0.000000	0.000000	0.000000	
7.998116	2337.420583	2310.723481	-162.579417	-189.276519	26432.066862	35825.600780	249.514865	0.000000	0.000000	0.000000	
8.103907	2336.745816	2310.048714	-163.254184	-189.951286	26651.928624	36081.491190	250.466405	0.000000	0.000000	0.000000	
8.198160	2336.086900	2309.389797	-163.913100	-190.610203	26867.504446	36332.249318	251.395612	0.000000	0.000000	0.000000	
8.301568	2335.412107	2308.715005	-164.587893	-191.284995	27089.174507	36589.949396	252.347229	0.000000	0.000000	0.000000	
8.398354	2334.753593	2308.056491	-165.246407	-191.943509	27306.375061	36842.310790	253.275909	0.000000	0.000000	0.000000	
8.501615	2334.078907	2307.381805	-165.921093	-192.618195	27529.809050	37101.769087	254.227414	0.000000	0.000000	0.000000	
8.598261	2333.420367	2306.723265	-166.579633	-193.276735	27748.774016	37355.896262	255.156168	0.000000	0.000000	0.000000	
8.698126	2332.753094	2306.055991	-167.246906	-193.944009	27971.527646	37614.278435	256.097259	0.000000	0.000000	0.000000	
8.797691	2332.091598	2305.394496	-167.908402	-194.605504	28193.231296	37871.302098	257.030219	0.000000	0.000000	0.000000	
8.898440	2331.419616	2304.722514	-168.580384	-195.277486	28419.345915	38133.296696	257.977989	0.000000	0.000000	0.000000	
9.001493	2330.746350	2304.049248	-169.253650	-195.950752	28646.798000	38396.697270	258.927587	0.000000	0.000000	0.000000	
9.098154	2330.086874	2303.389771	-169.913126	-196.610229	28870.470516	38655.582008	259.857754	0.000000	0.000000	0.000000	
9.201644	2329.412573	2302.715471	-170.587427	-197.284529	29100.070312	38921.185559	260.808849	0.000000	0.000000	0.000000	
9.301639	2328.745505	2302.048402	-171.254495	-197.951598	29328.102216	39184.835044	261.749761	0.000000	0.000000	0.000000	
9.398241	2328.086019	2301.388917	-171.913981	-198.611083	29554.416694	39446.362201	262.679993	0.000000	0.000000	0.000000	
9.501646	2327.412232	2300.715130	-172.587768	-199.284870	29786.537685	39714.459542	263.630418	0.000000	0.000000	0.000000	
9.601497	2326.746387	2300.049285	-173.253613	-199.950715	30016.814454	39980.288578	264.569656	0.000000	0.000000	0.000000	
9.702165	2326.078048	2299.380946	-173.921952	-200.619054	30248.845275	40248.004805	265.512429	0.000000	0.000000	0.000000	
9.798291	2325.420544	2298.723441	-174.579456	-201.276559	30477.986611	40512.253085	266.439936	0.000000	0.000000	0.000000	
9.901685	2324.745152	2298.048050	-175.254848	-201.951950	30714.261710	40784.590174	267.392692	0.000000	0.000000	0.000000	
9.997997	2324.087836	2297.390733	-175.912164	-202.609267	30945.089607	41050.514966	268.319967	0.000000	0.000000	0.000000	
10.104264	2323.412346	2296.715243	-176.587654	-203.284757	31183.199649	41324.692249	269.272895	0.000000	0.000000	0.000000	
10.201621	2322.746428	2296.049326	-177.253572	-203.950674	31418.828803	41595.877552	270.212336	0.000000	0.000000	0.000000	
10.298193	2322.086164	2295.389062	-177.913836	-204.610938	31653.332868	41865.635860	271.143816	0.000000	0.000000	0.000000	
10.401625	2321.412223	2294.715121	-178.587777	-205.284879	31893.594110	42141.881674	272.094608	0.000000	0.000000	0.000000	
10.501577	2320.746421	2294.049318	-179.253579	-205.950682	32131.845698	42415.683244	273.033934	0.000000	0.000000	0.000000	
10.667075	2320.089925	2293.392823	-179.910075	-206.607177	32367.634976	42686.525571	273.960144	0.000000	0.000000	0.000000	
10.731197	2319.201840	2292.504737	-180.798160	-207.495263	32687.974785	43054.284008	275.213115	0.000000	0.000000	0.000000	
10.797606	2318.759086	2292.061984	-181.240914	-207.938016	32848.268777	43238.218460	275.837792	0.000000	0.000000	0.000000	
10.901586	2318.079722	2291.382619	-181.920278	-208.617381	33094.987725	43521.211553	276.796314	0.000000	0.000000	0.000000	
10.998385	2317.420031	2290.722929	-182.579969	-209.277071	33335.445019	43796.892488	277.727092	0.000000	0.000000	0.000000	
11.101631	2316.746663	2290.049560	-183.253337	-209.950440	33581.785607	44079.187046	278.677184	0.000000	0.000000	0.000000	
11.198219	2316.087032	2289.389930	-183.912968	-210.610070	33823.979688	44356.601571	279.607906	0.000000	0.000000	0.000000	
11.298434	2315.418463	2288.721361	-184.581537	-211.278639	34070.343887	44638.663509	280.551256	0.000000	0.000000	0.000000	
11.401940	2314.743448	2288.046345	-185.256552	-211.953655	34319.990172	44924.351686	281.503716	0.000000	0.000000	0.000000	
11.498366	2314.086987	2287.389884	-185.913013	-212.610116	34563.648575	45203.061311	282.430009	0.000000	0.000000	0.000000	
11.598209	2313.419623	2286.722521	-186.580377	-213.277479	34812.237031	45487.283105	283.371700	0.000000	0.000000	0.000000	
11.701848	2312.745057	2286.047955	-187.254943	-213.952045	35064.413620	45775.477607	284.323568	0.000000	0.000000	0.000000	
11.798059	2312.087005	2285.389903	-187.912995	-214.610097	35311.293717	46057.493880	285.252147	0.000000	0.000000	0.000000	
11.901707	2311.412225	2284.715123	-188.587775	-215.284877	35565.348844	46347.578339	286.204345	0.000000	0.000000	0.000000	
12.001449	2310.746782	2284.049680	-189.253218	-215.950320	35816.780487	46634.540782	287.143381	0.000000	0.000000	0.000000	
12.099178	2310.087147	2283.390045	-189.912853	-216.609955	36066.891600	46919.872568	288.074234	0.000000	0.000000	0.000000	
12.201638	2309.412231	2282.715128	-190.587769	-217.284872	36323.697824	47212.715431	289.026665	0.000000	0.000000	0.000000	
12.312100	2308.660643	2281.963541	-191.339357	-218.036459	36610.749432	47539.897450	290.087309	0.000000	0.000000	0.000000	
12.398094	2308.087213	2281.390111	-191.912787	-218.609889	36830.517894	47790.283776	290.896548	0.000000	0.000000	0.000000	
12.501833	2307.412373	2280.715271	-192.587627	-219.284729	37089.994042	48085.792454	291.848910	0.000000	0.000000	0.000000	
12.601499	2306.746327	2280.049225	-193.253673	-219.950775	37346.982122	48378.343533	292.788876	0.000000	0.000000	0.000000	
12.701581	2306.079580	2279.382477	-193.920420	-220.617523	37605.129482	48672.091346	293.729843	0.000000	0.000000	0.000000	
12.798113	2305.420509	2278.723407	-194.579491	-221.276593	37861.178184	48963.330576	294.659988	0.000000	0.000000	0.000000	
12.901613	2304.745849	2278.048747	-195.254151	-221.951253	38124.183378	49262.358708	295.612148	0.000000	0.000000	0.000000	
12.998093	2304.087002	2277.389899	-195.912998	-222.610101	38381.902979	49555.256961	296.542004	0.000000	0.000000	0.000000	
13.101539	2303.412388	2276.715286	-196.587612	-223.284714	38646.689004	49856.063412	297.494122	0.000000	0.000000	0.000000	
13.201500	2302.745902	2276.048800	-197.254098	-223.951200	38909.179227	50154.140156	298.434782	0.000000	0.000000	0.000000	
13.298139	2302.087345	2275.390243	-197.912655	-224.609757	39169.419027	50449.543080	299.364263	0.000000	0.000000	0.000000	
13.401673	2301.412377	2274.715275	-198.587623	-225.284725	39437.044037	50753.207470	300.316918	0.000000	0.000000	0.000000	
13.501686	2300.746241	2274.049139	-199.253759	-225.950861	39702.060457	51053.791686	301.257120	0.000000	0.000000	0.000000	
13.601680	2300.079917	2273.382815	-199.920083	-226.617185	39968.039597	51355.348670	302.197598	0.000000	0.000000	0.000000	
13.698151	2299.420500	2272.723398	-200.579500	-227.276602	40232.135675	51654.653774	303.128338	0.000000	0.000000	0.000000	
13.801746	2298.745708	2272.048605	-201.254292	-227.951395	40503.290170	51961.838286	304.080793	0.000000	0.000000	0.000000	
13.901592	2298.080042	2271.382940	-201.919958	-228.617060	40771.669321	52265.760112	305.020375	0.000000	0.000000	0.000000	
13.998050	2297.420959	2270.723857	-202.579041	-229.276143	41038.267735	52567.549738	305.950678	0.000000	0.000000	0.000000	
14.104442	2296.746017	2270.048915	-203.253983	-229.951085	41312.181634	52877.501648	306.903378	0.000000	0.000000	0.000000	
14.198083	2296.087233	2269.390131	-203.912767	-230.609869	41580.416414	53180.911655	307.833280	0.000000	0.000000	0.000000	
14.301722	2295.412009	2268.714906	-204.587991	-231.285094	41856.246195	53492.794518	308.786400	0.000000	0.000000	0.000000	
14.401649	2294.746677	2268.049575	-205.253323	-231.950425	42128.926652	53800.999837	309.725566	0.000000	0.000000	0.000000	
14.501511	2294.080160	2267.383058	-205.919840	-232.616942	42402.980366	54110.641672	310.666416	0.000000	0.000000	0.000000	
14.598190	2293.419760	2266.722658	-206.580240	-233.277342	42675.395558	54418.318414	311.598642	0.000000	0.000000	0.000000	
14.701408	2292.745938	2266.048836	-207.254062	-233.951164	42954.246120	54733.147154	312.549825	0.000000	0.000000	0.000000	
14.798324	2292.086150	2265.389047	-207.913850	-234.610953	43228.169224	55042.299152	313.481209	0.000000	0.000000	0.000000	
14.901423	2291.412956	2264.715854	-208.587044	-235.284146	43508.554728	55358.629262	314.431525	0.000000	0.000000	0.000000	
15.001471	2290.746076	2264.048974	-209.253924	-235.951026	43787.204550	55672.886617	315.372940	0.000000	0.000000	0.000000	
15.098199	2290.086933	2263.389831	-209.913067	-236.610169	44063.495487	55984.371964	316.303442	0.000000	0.000000	0.000000	
15.201572	2289.412611	2262.715509	-210.587389	-237.284491	44347.048274	56303.929647	317.255383	0.000000	0.000000	0.000000	
15.301427	2288.746903	2262.049801	-211.253097	-237.950199	44627.870934	56620.297266	318.195173	0.000000	0.000000	0.000000	
15.398297	2288.086298	2261.389195	-211.913702	-238.610805	44907.417307	56935.116151	319.127770	0.000000	0.000000	0.000000	
15.501433	2287.413494	2260.716391	-212.586506	-239.283609	45193.022673	57256.645342	320.077597	0.000000	0.000000	0.000000	
15.611732	2286.746900	2260.049798	-213.253100	-239.950202	45476.884599	57576.099499	321.018666	0.000000	0.000000	0.000000	
15.698034	2286.087107	2259.390005	-213.912893	-240.609995	45758.725728	57893.169751	321.950144	0.000000	0.000000	0.000000	
15.801726	2285.412503	2258.715400	-214.587497	-241.284600	46047.794008	58218.258000	322.902543	0.000000	0.000000	0.000000	
