AF-MATB V. 3.03
Programmed using MATLAB 7.5.0 and other Custom MATLAB Functions.

William Daniel Miller, Jr.
Air Force Research Laboratory
711th Human Performance Wing
Human Effectiveness Directorate
Applied Neuroscience Branch

RMS Center Coordinate (X,Y) is:	599.500000	565.500000	
Tracking Box X-Axis Lower Limit is:	449.500000	
Tracking Box X-Axis Upper Limit is:	749.500000	
Tracking Box Y-Axis Lower Limit is:	417.500000	
Tracking Box Y-Axis Upper Limit is:	717.500000	


Event Time	X Coordinates	Y Coordinates	X-Axis Difference	Y-Axis Difference	X-Axis Deviation	Y-Axis Deviation	Euclidian Distance From Target	X-Axis In Range?	y-Axis In Range?	Both In Range?
0.100357	601.320680	562.888622	1.820680	-2.611378	3.314877	6.819294	3.183421	1.000000	1.000000	1.000000	
0.107932	603.161121	560.277244	3.661121	-5.222756	13.403805	27.277177	6.378164	1.000000	1.000000	1.000000	
0.199388	604.981801	557.666906	5.481801	-7.833094	30.050143	61.357355	9.560727	1.000000	1.000000	1.000000	
0.302995	606.843041	555.055529	7.343041	-10.444471	53.920257	109.086984	12.767429	1.000000	1.000000	1.000000	
0.402705	608.704282	552.444151	9.204282	-13.055849	84.718803	170.455201	15.974167	1.000000	1.000000	1.000000	
0.499157	610.565522	549.832773	11.065522	-15.667227	122.445780	245.462007	19.180922	1.000000	1.000000	1.000000	
0.603269	612.426762	547.221395	12.926762	-18.278605	167.101188	334.107402	22.387688	1.000000	1.000000	1.000000	
0.700619	614.288003	544.611057	14.788003	-20.888943	218.685028	436.347935	25.593612	1.000000	1.000000	1.000000	
0.802812	616.149243	541.999679	16.649243	-23.500321	277.197299	552.265075	28.800388	1.000000	1.000000	1.000000	
0.898897	616.149243	541.979919	16.649243	-23.520081	277.197299	553.194198	28.816514	1.000000	1.000000	1.000000	
1.001030	617.989684	539.369581	18.489684	-26.130419	341.868397	682.798776	32.010423	1.000000	1.000000	1.000000	
1.102874	619.830124	536.758204	20.330124	-28.741796	413.313937	826.090864	35.205181	1.000000	1.000000	1.000000	
1.199629	621.731924	534.146826	22.231924	-31.353174	494.258455	983.021540	38.435400	1.000000	1.000000	1.000000	
1.302617	623.572365	531.535448	24.072365	-33.964552	579.478737	1153.590805	41.630152	1.000000	1.000000	1.000000	
1.399482	625.433605	528.924070	25.933605	-36.575930	672.551866	1337.798659	44.836933	1.000000	1.000000	1.000000	
1.502825	627.294845	526.313732	27.794845	-39.186268	772.553425	1535.563592	48.042866	1.000000	1.000000	1.000000	
1.602811	629.156086	523.702354	29.656086	-41.797646	879.483416	1747.043191	51.249650	1.000000	1.000000	1.000000	
1.699626	631.057886	521.092016	31.557886	-44.407984	995.900169	1972.069010	54.479071	1.000000	1.000000	1.000000	
1.799214	632.878566	518.480639	33.378566	-47.019361	1114.128692	2210.820354	57.662371	1.000000	1.000000	1.000000	
1.899488	634.739807	515.869261	35.239807	-49.630739	1241.843977	2463.210288	60.869157	1.000000	1.000000	1.000000	
2.002808	636.580247	513.258923	37.080247	-52.241077	1374.944723	2729.130148	64.063054	1.000000	1.000000	1.000000	
2.104587	638.420687	510.647545	38.920687	-54.852455	1514.819909	3008.791827	67.257801	1.000000	1.000000	1.000000	
2.202728	640.241368	508.036167	40.741368	-57.463833	1659.859048	3302.092095	70.441118	1.000000	1.000000	1.000000	
2.299002	641.491088	505.425829	41.991088	-60.074171	1763.251482	3608.905996	73.295003	1.000000	1.000000	1.000000	
2.402703	641.478248	503.120211	41.978248	-62.379789	1762.173346	3891.238032	75.189171	1.000000	1.000000	1.000000	
2.502770	641.180449	501.119313	41.680449	-64.380687	1737.259815	4144.872795	76.695062	1.000000	1.000000	1.000000	
2.603128	640.882649	499.077856	41.382649	-66.422144	1712.523654	4411.901262	78.258705	1.000000	1.000000	1.000000	
2.699139	640.584850	497.016638	41.084850	-68.483362	1687.964862	4689.970902	79.861979	1.000000	1.000000	1.000000	
2.802795	640.307850	494.955420	40.807850	-70.544580	1665.280613	4976.537780	81.497352	1.000000	1.000000	1.000000	
2.899019	640.010050	492.894202	40.510050	-72.605798	1641.064171	5271.601896	83.142444	1.000000	1.000000	1.000000	
3.002797	639.712251	490.832984	40.212251	-74.667016	1617.025099	5575.163250	84.806771	1.000000	1.000000	1.000000	
3.098587	639.414451	488.791526	39.914451	-76.708474	1593.163395	5884.189933	86.471691	1.000000	1.000000	1.000000	
3.202703	639.116651	486.973668	39.616651	-78.526332	1569.479061	6166.384743	87.953759	1.000000	1.000000	1.000000	
3.299260	638.818852	485.236931	39.318852	-80.263069	1545.972096	6442.160308	89.376353	1.000000	1.000000	1.000000	
3.402748	638.541852	483.581313	39.041852	-81.918687	1524.266209	6710.671321	90.746557	1.000000	1.000000	1.000000	
3.499850	638.244052	482.088975	38.744052	-83.411025	1501.101594	6957.399110	91.970108	1.000000	1.000000	1.000000	
3.599079	637.946253	480.820237	38.446253	-84.679763	1478.114349	7170.662257	92.998799	1.000000	1.000000	1.000000	
3.702735	637.628693	479.632619	38.128693	-85.867381	1453.797236	7373.207091	93.952138	1.000000	1.000000	1.000000	
3.799134	637.330893	478.607241	37.830893	-86.892759	1431.176498	7550.351513	94.770924	1.000000	1.000000	1.000000	
3.902634	637.033094	477.865783	37.533094	-87.634217	1408.733129	7679.755911	95.333567	1.000000	1.000000	1.000000	
4.002338	636.735294	477.632886	37.235294	-87.867114	1386.467130	7720.629795	95.431111	1.000000	1.000000	1.000000	
4.101066	636.458294	477.481108	36.958294	-88.018892	1365.915532	7747.325397	95.463296	1.000000	1.000000	1.000000	
4.202682	636.181295	477.329330	36.681295	-88.170670	1345.517392	7774.067072	95.496515	1.000000	1.000000	1.000000	
4.303408	636.388099	477.840618	36.888099	-87.659382	1360.731872	7684.167277	95.104675	1.000000	1.000000	1.000000	
4.399632	636.594904	478.595266	37.094904	-86.904734	1376.031888	7552.432817	94.490554	1.000000	1.000000	1.000000	
4.502951	636.780908	479.614074	37.280908	-85.885926	1389.866122	7376.392311	93.628299	1.000000	1.000000	1.000000	
4.612101	636.966913	480.815922	37.466913	-84.684078	1403.769551	7171.393093	92.602174	1.000000	1.000000	1.000000	
4.698827	637.152917	482.058330	37.652917	-83.441670	1417.742176	6962.512319	91.543730	1.000000	1.000000	1.000000	
4.802859	637.359722	483.260178	37.859722	-82.239822	1433.358527	6763.388350	90.535887	1.000000	1.000000	1.000000	
4.899321	637.545726	484.462026	38.045726	-81.037974	1447.477280	6567.153258	89.524469	1.000000	1.000000	1.000000	
4.999239	637.731731	485.663874	38.231731	-79.836126	1461.665229	6373.807043	88.518203	1.000000	1.000000	1.000000	
5.099399	637.897975	486.865722	38.397975	-78.634278	1474.404494	6183.349706	87.508595	1.000000	1.000000	1.000000	
5.202590	638.083980	488.067570	38.583980	-77.432430	1488.723482	5995.781245	86.513032	1.000000	1.000000	1.000000	
5.299576	638.269984	489.269418	38.769984	-76.230582	1503.111666	5811.101662	85.523174	1.000000	1.000000	1.000000	
5.402461	638.395669	490.511826	38.895669	-74.988174	1512.873032	5623.226270	84.475436	1.000000	1.000000	1.000000	
5.499085	638.521353	491.713674	39.021353	-73.786326	1522.665992	5444.421935	83.469084	1.000000	1.000000	1.000000	
5.602645	638.666798	492.915522	39.166798	-72.584478	1534.038027	5268.506478	82.477539	1.000000	1.000000	1.000000	
5.699124	638.771682	494.117370	39.271682	-71.382630	1542.265006	5095.479897	81.472357	1.000000	1.000000	1.000000	
5.802668	638.815206	495.319218	39.315206	-70.180782	1545.685459	4925.342194	80.442698	1.000000	1.000000	1.000000	
5.902610	638.818171	496.521066	39.318171	-68.978934	1545.918566	4758.093368	79.397808	1.000000	1.000000	1.000000	
5.998923	638.821135	497.722914	39.321135	-67.777086	1546.151690	4593.733419	78.357419	1.000000	1.000000	1.000000	
6.105573	638.824100	498.924762	39.324100	-66.575238	1546.384832	4432.262347	77.321712	1.000000	1.000000	1.000000	
6.199445	638.807304	500.167170	39.307304	-65.332830	1545.064176	4268.378709	76.245937	1.000000	1.000000	1.000000	
6.299147	638.790509	501.369018	39.290509	-64.130982	1543.744085	4112.782885	75.209886	1.000000	1.000000	1.000000	
6.403362	638.773713	502.570866	39.273713	-62.929134	1542.424558	3960.075939	74.178841	1.000000	1.000000	1.000000	
6.499230	638.716358	503.732154	39.216358	-61.767846	1537.922718	3815.266833	73.165494	1.000000	1.000000	1.000000	
6.599300	638.638202	504.852882	39.138202	-60.647118	1531.798877	3678.072955	72.179442	1.000000	1.000000	1.000000	
6.702974	638.580847	505.892490	39.080847	-59.607510	1527.312582	3553.055282	71.276699	1.000000	1.000000	1.000000	
6.799350	638.543251	506.891538	39.043251	-58.608462	1524.375466	3434.951852	70.422492	1.000000	1.000000	1.000000	
6.903134	637.191176	512.378542	37.691176	-53.121458	1420.624762	2821.889334	65.134584	1.000000	1.000000	1.000000	
7.002940	635.778781	517.783386	36.278781	-47.716614	1316.149961	2276.875285	59.941849	1.000000	1.000000	1.000000	
7.099415	634.285266	522.883510	34.785266	-42.616490	1210.014737	1816.165252	55.010726	1.000000	1.000000	1.000000	
7.202823	632.770951	527.638354	33.270951	-37.861646	1106.956184	1433.504269	50.402981	1.000000	1.000000	1.000000	
7.302647	631.216076	532.028158	31.716076	-33.471842	1005.909477	1120.364237	46.111536	1.000000	1.000000	1.000000	
7.399382	629.518721	536.194362	30.018721	-29.305638	901.123608	858.820446	41.951687	1.000000	1.000000	1.000000	
7.502628	627.780806	540.339765	28.280806	-25.160235	799.803983	633.037400	37.852891	1.000000	1.000000	1.000000	
7.602537	626.042891	544.485169	26.542891	-21.014831	704.525056	441.623103	33.854810	1.000000	1.000000	1.000000	
7.702407	624.264416	548.610813	24.764416	-16.889187	613.276292	285.244623	29.975338	1.000000	1.000000	1.000000	
7.799485	622.506741	552.695897	23.006741	-12.804103	529.310122	163.945043	26.329739	1.000000	1.000000	1.000000	
7.902571	620.708506	556.679061	21.208506	-8.820939	449.800716	77.808958	22.969756	1.000000	1.000000	1.000000	
8.002461	618.848911	560.519745	19.348911	-4.980255	374.380345	24.802937	19.979572	1.000000	1.000000	1.000000	
8.099956	616.908196	564.117069	17.408196	-1.382931	303.045276	1.912497	17.463040	1.000000	1.000000	1.000000	
8.202730	614.967481	567.389913	15.467481	1.889913	239.242957	3.571772	15.582514	1.000000	1.000000	1.000000	
8.303293	613.026766	570.215557	13.526766	4.715557	182.973387	22.236480	14.325148	1.000000	1.000000	1.000000	
8.399227	611.086051	572.756241	11.586051	7.256241	134.236567	52.653036	13.670757	1.000000	1.000000	1.000000	
8.503259	609.145335	575.296925	9.645335	9.796925	93.032497	95.979743	13.748172	1.000000	1.000000	1.000000	
8.599200	607.204620	577.837609	7.704620	12.337609	59.361176	152.216599	14.545713	1.000000	1.000000	1.000000	
8.703365	605.263905	580.378293	5.763905	14.878293	33.222606	221.363606	15.955758	1.000000	1.000000	1.000000	
8.799233	603.302390	582.918977	3.802390	17.418977	14.458172	303.420763	17.829160	1.000000	1.000000	1.000000	
8.898509	601.361675	585.459661	1.861675	19.959661	3.465835	398.388069	20.046294	1.000000	1.000000	1.000000	
8.999510	599.440720	587.999305	-0.059280	22.499305	0.003514	506.218726	22.499383	1.000000	1.000000	1.000000	
9.102809	597.540565	590.152069	-1.959435	24.652069	3.839385	607.724505	24.729818	1.000000	1.000000	1.000000	
9.199250	595.680970	592.060433	-3.819030	26.560433	14.584989	705.456599	26.833591	1.000000	1.000000	1.000000	
9.302744	593.861935	593.295917	-5.638065	27.795917	31.787775	772.612998	28.361960	1.000000	1.000000	1.000000	
9.402554	592.225940	594.062361	-7.274060	28.562361	52.911947	815.808460	29.474063	1.000000	1.000000	1.000000	
9.499612	590.650265	594.584405	-8.849735	29.084405	78.317809	845.902606	30.400994	1.000000	1.000000	1.000000	
9.602652	589.095390	594.779889	-10.404610	29.279889	108.255909	857.311890	31.073587	1.000000	1.000000	1.000000	
9.703048	587.540515	594.689373	-11.959485	29.189373	143.029282	852.019484	31.544394	1.000000	1.000000	1.000000	
9.799541	586.047000	594.273337	-13.453000	28.773337	180.983211	827.904909	31.762999	1.000000	1.000000	1.000000	
9.903065	584.573245	593.653461	-14.926755	28.153461	222.808018	792.617351	31.865740	1.000000	1.000000	1.000000	
10.008356	583.140050	593.012785	-16.359950	27.512785	267.647969	756.953322	32.009394	1.000000	1.000000	1.000000	
10.100173	581.687095	592.372109	-17.812905	26.872109	317.299592	722.110224	32.239879	1.000000	1.000000	1.000000	
10.202676	580.213340	591.731433	-19.286660	26.231433	371.975263	688.088058	32.558614	1.000000	1.000000	1.000000	
10.302584	578.780145	591.090757	-20.719855	25.590757	429.312403	654.886824	32.927181	1.000000	1.000000	1.000000	
10.402643	577.327190	590.450081	-22.172810	24.950081	491.633518	622.506521	33.378736	1.000000	1.000000	1.000000	
10.499110	575.893995	589.809405	-23.606005	24.309405	557.243489	590.947149	33.884962	1.000000	1.000000	1.000000	
10.602910	574.441040	589.168729	-25.058960	23.668729	627.951497	560.208709	34.469700	1.000000	1.000000	1.000000	
10.699288	573.007845	588.507252	-26.492155	23.007252	701.834301	529.333667	35.088003	1.000000	1.000000	1.000000	
10.802690	571.554890	587.887376	-27.945110	22.387376	780.929201	501.194624	35.806757	1.000000	1.000000	1.000000	
10.902695	570.081134	587.246700	-29.418866	21.746700	865.469650	472.918979	36.583994	1.000000	1.000000	1.000000	
11.002822	568.628179	586.606024	-30.871821	21.106024	953.069306	445.464265	37.396973	1.000000	1.000000	1.000000	
11.099266	567.175224	585.944548	-32.324776	20.444548	1044.891119	417.979557	38.247492	1.000000	1.000000	1.000000	
11.202674	565.722269	585.446352	-33.777731	19.946352	1140.935089	397.856971	39.227440	1.000000	1.000000	1.000000	
11.299240	564.269314	585.519116	-35.230686	20.019116	1241.201216	400.765017	40.521183	1.000000	1.000000	1.000000	
11.403011	564.856707	581.724298	-34.643293	16.224298	1200.157716	263.227852	38.254223	1.000000	1.000000	1.000000	
11.502463	565.423301	578.071960	-34.076699	12.571960	1161.221436	158.054181	36.321834	1.000000	1.000000	1.000000	
11.602515	566.030454	574.440422	-33.469546	8.940422	1120.210517	79.931146	34.643061	1.000000	1.000000	1.000000	
11.699037	566.840407	570.828644	-32.659593	5.328644	1066.649009	28.394446	33.091441	1.000000	1.000000	1.000000	
11.802758	567.773080	567.257426	-31.726920	1.757426	1006.597434	3.088546	31.775556	1.000000	1.000000	1.000000	
11.902639	568.705753	563.686208	-30.794247	-1.813792	948.285618	3.289842	30.847617	1.000000	1.000000	1.000000	
12.018216	569.658187	560.114990	-29.841813	-5.385010	890.533821	28.998336	30.323789	1.000000	1.000000	1.000000	
12.104980	570.631420	556.503212	-28.868580	-8.996788	833.394917	80.942201	30.238008	1.000000	1.000000	1.000000	
12.199202	571.583853	552.973594	-27.916147	-12.526406	779.311258	156.910859	30.597747	1.000000	1.000000	1.000000	
12.303297	573.084366	550.299895	-26.415634	-15.200105	697.785704	231.043178	30.476694	1.000000	1.000000	1.000000	
12.401640	574.788719	547.972517	-24.711281	-17.527483	610.647384	307.212647	30.296205	1.000000	1.000000	1.000000	
12.502563	576.493073	545.727299	-23.006927	-19.772701	529.318704	390.959694	30.336091	1.000000	1.000000	1.000000	
12.599174	578.217186	543.747281	-21.282814	-21.752719	452.958176	473.180775	30.432531	1.000000	1.000000	1.000000	
12.701833	579.941299	541.828623	-19.558701	-23.671377	382.542781	560.334083	30.706300	1.000000	1.000000	1.000000	
12.798251	581.665412	539.909965	-17.834588	-25.590035	318.072518	654.849890	31.191704	1.000000	1.000000	1.000000	
12.901607	583.389526	537.991307	-16.110474	-27.508693	259.547389	756.728193	31.879077	1.000000	1.000000	1.000000	
13.001655	585.134439	536.072649	-14.365561	-29.427351	206.369351	865.968995	32.746578	1.000000	1.000000	1.000000	
13.101869	586.879352	534.153991	-12.620648	-31.346009	159.280758	982.572294	33.791316	1.000000	1.000000	1.000000	
13.198357	588.583705	532.235333	-10.916295	-33.264667	119.165494	1106.538091	35.010050	1.000000	1.000000	1.000000	
13.301849	590.307818	530.316675	-9.192182	-35.183325	84.496204	1237.866385	36.364304	1.000000	1.000000	1.000000	
13.401614	592.031932	528.520737	-7.468068	-36.979263	55.772047	1367.465927	37.725826	1.000000	1.000000	1.000000	
13.498235	593.736285	526.744558	-5.763715	-38.755442	33.220414	1501.984250	39.181688	1.000000	1.000000	1.000000	
13.602096	595.460398	524.948620	-4.039602	-40.551380	16.318385	1644.414390	40.752089	1.000000	1.000000	1.000000	
13.701759	597.184511	523.152682	-2.315489	-42.347318	5.361489	1793.295318	42.410574	1.000000	1.000000	1.000000	
13.798680	598.888864	521.397304	-0.611136	-44.102696	0.373487	1945.047777	44.106930	1.000000	1.000000	1.000000	
13.902205	600.593218	519.702246	1.093218	-45.797754	1.195125	2097.434261	45.810800	1.000000	1.000000	1.000000	
14.001658	602.276771	518.352468	2.776771	-47.147532	7.710456	2222.889771	47.229231	1.000000	1.000000	1.000000	
14.099022	603.838644	517.815970	4.338644	-47.684030	18.823831	2273.766722	47.881004	1.000000	1.000000	1.000000	
14.201724	605.055237	517.847312	5.555237	-47.652688	30.860659	2270.778687	47.975404	1.000000	1.000000	1.000000	
14.301705	606.231270	517.920254	6.731270	-47.579746	45.310000	2263.832250	48.053535	1.000000	1.000000	1.000000	
14.398202	607.428104	517.951596	7.928104	-47.548404	62.854825	2260.850752	48.204829	1.000000	1.000000	1.000000	
14.501727	608.644697	517.982938	9.144697	-47.517062	83.625478	2257.871218	48.389014	1.000000	1.000000	1.000000	
14.598115	609.841530	518.014280	10.341530	-47.485720	106.947241	2254.893649	48.598775	1.000000	1.000000	1.000000	
14.701779	611.038363	518.045621	11.538363	-47.454379	133.133823	2251.918044	48.836993	1.000000	1.000000	1.000000	
14.801709	612.214396	518.076963	12.714396	-47.423037	161.655874	2248.944404	49.097864	1.000000	1.000000	1.000000	
14.898053	613.411230	518.108305	13.911230	-47.391695	193.522307	2245.972729	49.391245	1.000000	1.000000	1.000000	
15.011553	614.627823	518.139647	15.127823	-47.360353	228.851020	2243.003018	49.717744	1.000000	1.000000	1.000000	
15.101795	615.844416	518.151229	16.344416	-47.348771	267.139932	2241.906105	50.090379	1.000000	1.000000	1.000000	
15.198150	617.061009	518.162811	17.561009	-47.337189	308.389041	2240.809460	50.489588	1.000000	1.000000	1.000000	
15.301737	618.298402	518.194153	18.798402	-47.305847	353.379930	2237.843166	50.904058	1.000000	1.000000	1.000000	
15.401725	619.514996	518.267095	20.014996	-47.232905	400.600046	2230.947328	51.298610	1.000000	1.000000	1.000000	
15.501621	620.548549	518.298437	21.048549	-47.201563	443.041403	2227.987571	51.681999	1.000000	1.000000	1.000000	
15.598131	621.460422	518.310019	21.960422	-47.189981	482.260131	2226.894336	52.049539	1.000000	1.000000	1.000000	
15.701758	622.310935	518.321601	22.810935	-47.178399	520.338761	2225.801369	52.403627	1.000000	1.000000	1.000000	
15.798109	623.080328	518.352943	23.580328	-47.147057	556.031884	2222.845029	52.715054	1.000000	1.000000	1.000000	
15.901734	623.890282	518.384284	24.390282	-47.115716	594.885833	2219.890653	53.054467	1.000000	1.000000	1.000000	
16.001740	624.700235	518.415626	25.200235	-47.084374	635.051830	2216.938242	53.404027	1.000000	1.000000	1.000000	
16.099038	625.347948	518.446968	25.847948	-47.053032	668.116412	2213.987795	53.685233	1.000000	1.000000	1.000000	
16.201677	625.935341	518.478310	26.435341	-47.021690	698.827261	2211.039313	53.943179	1.000000	1.000000	1.000000	
16.301767	626.501934	518.509652	27.001934	-46.990348	729.104458	2208.092795	54.195915	1.000000	1.000000	1.000000	
16.397996	627.027968	518.540994	27.527968	-46.959006	757.788997	2205.148243	54.432869	1.000000	1.000000	1.000000	
16.502227	627.574801	518.613936	28.074801	-46.886064	788.194436	2198.303003	54.648856	1.000000	1.000000	1.000000	
16.601602	628.121634	518.645278	28.621634	-46.854722	819.197929	2195.364987	54.905035	1.000000	1.000000	1.000000	
16.698050	628.668467	518.392700	29.168467	-47.107300	850.799475	2219.097735	55.406653	1.000000	1.000000	1.000000	
16.802065	629.235060	518.078762	29.735060	-47.421238	884.173813	2248.773843	55.972740	1.000000	1.000000	1.000000	
