AF-MATB V. 3.03
Programmed using MATLAB 7.5.0 and other Custom MATLAB Functions.

William Daniel Miller, Jr.
Air Force Research Laboratory
711th Human Performance Wing
Human Effectiveness Directorate
Applied Neuroscience Branch

RMS Center Coordinate (X,Y) is:	599.500000	565.500000	
Tracking Box X-Axis Lower Limit is:	449.500000	
Tracking Box X-Axis Upper Limit is:	749.500000	
Tracking Box Y-Axis Lower Limit is:	417.500000	
Tracking Box Y-Axis Upper Limit is:	717.500000	


Event Time	X Coordinates	Y Coordinates	X-Axis Difference	Y-Axis Difference	X-Axis Deviation	Y-Axis Deviation	Euclidian Distance From Target	X-Axis In Range?	y-Axis In Range?	Both In Range?
0.093435	597.954522	567.637464	-1.545478	2.137464	2.388501	4.568753	2.637661	1.000000	1.000000	1.000000	
0.100546	596.438685	569.835768	-3.061315	4.335768	9.371650	18.798886	5.307592	1.000000	1.000000	1.000000	
0.199716	594.922847	571.973232	-4.577153	6.473232	20.950326	41.902737	7.927992	1.000000	1.000000	1.000000	
0.303299	593.377370	574.171536	-6.122630	8.671536	37.486599	75.195544	10.615185	1.000000	1.000000	1.000000	
0.403281	591.769492	576.401041	-7.730508	10.901041	59.760748	118.832685	13.363885	1.000000	1.000000	1.000000	
0.499368	590.253655	578.538505	-9.246345	13.038505	85.494899	170.002604	15.984289	1.000000	1.000000	1.000000	
0.603464	588.708177	580.736809	-10.791823	15.236809	116.463437	232.160341	18.671470	1.000000	1.000000	1.000000	
0.699076	587.162700	582.966313	-12.337300	17.466313	152.208977	305.072085	21.384131	1.000000	1.000000	1.000000	
0.799787	585.554822	585.256657	-13.945178	19.756657	194.467982	390.325495	24.182504	1.000000	1.000000	1.000000	
0.898870	584.009345	587.302081	-15.490655	21.802081	239.960401	475.330740	26.744927	1.000000	1.000000	1.000000	
1.002996	582.401467	588.522265	-17.098533	23.022265	292.359824	530.024695	28.677247	1.000000	1.000000	1.000000	
1.225986	580.885630	587.202769	-18.614370	21.702769	346.494783	471.010195	28.592044	1.000000	1.000000	1.000000	
1.234795	579.369792	585.883273	-20.130208	20.383273	405.225268	415.477835	28.647916	1.000000	1.000000	1.000000	
1.299707	577.853955	584.594978	-21.646045	19.094978	468.551281	364.618166	28.864675	1.000000	1.000000	1.000000	
1.399694	585.475365	578.683241	-14.024635	13.183241	196.690390	173.797855	19.248071	1.000000	1.000000	1.000000	
1.501851	593.096775	572.403345	-6.403225	6.903345	41.001289	47.656178	9.415809	1.000000	1.000000	1.000000	
1.603268	600.718185	566.062609	1.218185	0.562609	1.483976	0.316529	1.341829	1.000000	1.000000	1.000000	
1.699189	608.277196	559.997993	8.777196	-5.502007	77.039164	30.272078	10.359114	1.000000	1.000000	1.000000	
1.799689	615.836206	555.554217	16.336206	-9.945783	266.871624	98.918594	19.125643	1.000000	1.000000	1.000000	
1.899487	623.395216	551.355361	23.895216	-14.144639	570.981356	200.070807	27.767826	1.000000	1.000000	1.000000	
1.998402	631.046266	547.156505	31.546266	-18.343495	995.166927	336.483803	36.491790	1.000000	1.000000	1.000000	
2.107060	638.514797	542.895249	39.014797	-22.604751	1522.154362	510.974764	45.090233	1.000000	1.000000	1.000000	
2.199084	646.165847	538.633993	46.665847	-26.866007	2177.701273	721.782330	53.846853	1.000000	1.000000	1.000000	
2.299739	653.664017	534.464777	54.164017	-31.035223	2933.740762	963.185068	62.425362	1.000000	1.000000	1.000000	
2.420022	661.223027	531.978801	61.723027	-33.521199	3809.732122	1123.670787	70.238187	1.000000	1.000000	1.000000	
2.498913	668.782038	530.655025	69.282038	-34.844975	4800.000755	1214.172291	77.551100	1.000000	1.000000	1.000000	
2.601485	676.280208	530.615129	76.780208	-34.884871	5895.200342	1216.954237	84.333591	1.000000	1.000000	1.000000	
2.699792	683.839218	530.851353	84.339218	-34.648647	7113.103739	1200.528755	91.179123	1.000000	1.000000	1.000000	
2.802167	691.337389	531.544657	91.837389	-33.955343	8434.105933	1152.965337	97.913591	1.000000	1.000000	1.000000	
2.912219	698.743519	532.237961	99.243519	-33.262039	9849.276023	1106.363260	104.669190	1.000000	1.000000	1.000000	
3.001126	706.149649	532.931265	106.649649	-32.568735	11374.147644	1060.722525	111.511749	1.000000	1.000000	1.000000	
3.102125	711.842899	534.509089	112.342899	-30.990911	12620.927027	960.436592	116.539108	1.000000	1.000000	1.000000	
3.199067	712.325750	538.066553	112.825750	-27.433447	12729.649768	752.594041	116.113065	1.000000	1.000000	1.000000	
3.298783	712.320320	541.837736	112.820320	-23.662264	12728.424569	559.902716	115.275007	1.000000	1.000000	1.000000	
3.398667	712.010690	545.608920	112.510690	-19.891080	12658.655387	395.655048	114.255461	1.000000	1.000000	1.000000	
3.502174	711.701060	549.380104	112.201060	-16.119896	12589.077947	259.851036	113.353116	1.000000	1.000000	1.000000	
3.598847	711.238551	553.151288	111.738551	-12.348712	12485.503696	152.490681	112.418835	1.000000	1.000000	1.000000	
3.702366	710.471841	556.861632	110.971841	-8.638368	12314.749470	74.621397	111.307551	1.000000	1.000000	1.000000	
3.798637	709.765971	560.632816	110.265971	-4.867184	12158.584393	23.689478	110.373339	1.000000	1.000000	1.000000	
3.919712	708.999261	563.154440	109.499261	-2.345560	11990.088249	5.501651	109.524380	1.000000	1.000000	1.000000	
3.998871	708.232552	564.518544	108.732552	-0.981456	11822.767793	0.963256	108.736981	1.000000	1.000000	1.000000	
4.100015	698.395201	562.385172	98.895201	-3.114828	9780.260721	9.702154	98.944241	1.000000	1.000000	1.000000	
4.198832	688.985290	558.721440	89.485290	-6.778560	8007.617078	45.948878	89.741662	1.000000	1.000000	1.000000	
4.300417	679.575379	553.589748	80.075379	-11.910252	6412.066283	141.854111	80.956287	1.000000	1.000000	1.000000	
4.399575	670.104628	546.470616	70.604628	-19.029384	4985.013465	362.117474	73.124079	1.000000	1.000000	1.000000	
4.501214	660.694717	538.800803	61.194717	-26.699197	3744.793367	712.847101	66.765563	1.000000	1.000000	1.000000	
4.604417	651.284806	531.070151	51.784806	-34.429849	2681.666117	1185.414487	62.185855	1.000000	1.000000	1.000000	
4.698938	641.814055	522.604739	42.314055	-42.895261	1790.479240	1840.003409	60.253487	1.000000	1.000000	1.000000	
4.801360	632.404144	513.619847	32.904144	-51.880153	1082.682686	2691.550282	61.434786	1.000000	1.000000	1.000000	
4.897994	623.602633	504.603755	24.102633	-60.896245	580.936915	3708.352680	65.492668	1.000000	1.000000	1.000000	
5.002464	629.151553	504.603755	29.651553	-60.896245	879.214592	3708.352680	67.731583	1.000000	1.000000	1.000000	
5.101205	626.877082	495.893423	27.377082	-69.606577	749.504617	4845.075610	74.796927	1.000000	1.000000	1.000000	
5.201873	625.398211	488.621411	25.898211	-76.878589	670.717333	5910.317522	81.123578	1.000000	1.000000	1.000000	
5.298491	624.591700	482.143438	25.091700	-83.356562	629.593410	6948.316368	87.051191	1.000000	1.000000	1.000000	
5.401107	624.459109	476.553106	24.959109	-88.946894	622.957125	7911.549913	92.382396	1.000000	1.000000	1.000000	
5.498547	625.855318	473.226334	26.355318	-92.273666	694.602792	8514.429423	95.963703	1.000000	1.000000	1.000000	
5.647739	628.443367	471.885442	28.943367	-93.614558	837.718500	8763.685482	97.986754	1.000000	1.000000	1.000000	
5.706377	632.285656	471.368230	32.785656	-94.131770	1074.899249	8860.790163	99.677928	1.000000	1.000000	1.000000	
5.801964	637.370610	474.935846	37.870610	-90.564154	1434.183075	8201.866031	98.163380	1.000000	1.000000	1.000000	
5.897628	642.455563	478.656342	42.955563	-86.843658	1845.180405	7541.820977	96.886539	1.000000	1.000000	1.000000	
6.003278	647.724597	482.710678	48.224597	-82.789322	2325.611721	6854.071881	95.810665	1.000000	1.000000	1.000000	
6.104692	652.932790	487.588694	53.432790	-77.911306	2855.063061	6070.171646	94.473460	1.000000	1.000000	1.000000	
6.199312	657.008424	493.014270	57.508424	-72.485730	3307.218788	5254.181097	92.527833	1.000000	1.000000	1.000000	
6.301243	660.717457	498.379006	61.217457	-67.120994	3747.577056	4505.227878	90.844950	1.000000	1.000000	1.000000	
6.398620	664.212771	503.804582	64.712771	-61.695418	4187.742681	3806.324643	89.409548	1.000000	1.000000	1.000000	
6.509040	667.800124	509.230158	68.300124	-56.269842	4664.906954	3166.295158	88.494080	1.000000	1.000000	1.000000	
6.601371	671.387478	514.655734	71.887478	-50.844266	5167.809437	2585.139422	88.050831	1.000000	1.000000	1.000000	
6.702040	674.577031	520.081310	75.077031	-45.418690	5636.560599	2062.857436	87.746328	1.000000	1.000000	1.000000	
6.798519	672.261345	525.506886	72.761345	-39.993114	5294.213268	1599.449200	83.028082	1.000000	1.000000	1.000000	
6.900976	668.109538	530.932462	68.609538	-34.567538	4707.268717	1194.914712	76.825669	1.000000	1.000000	1.000000	
7.002197	663.896892	536.358038	64.396892	-29.141962	4146.959646	849.253975	70.683899	1.000000	1.000000	1.000000	
7.098542	659.256805	541.722774	59.756805	-23.777226	3570.875754	565.356498	64.313546	1.000000	1.000000	1.000000	
7.200835	654.432639	547.087510	54.932639	-18.412490	3017.594781	339.019805	57.936298	1.000000	1.000000	1.000000	
7.298795	649.608472	552.513086	50.108472	-12.986914	2510.858973	168.659948	51.764070	1.000000	1.000000	1.000000	
7.402179	644.662626	557.938661	45.162626	-7.561339	2039.662748	57.173840	45.791228	1.000000	1.000000	1.000000	
7.517498	639.715219	563.364237	40.215219	-2.135763	1617.263844	4.561482	40.271893	1.000000	1.000000	1.000000	
7.599134	639.715219	563.364237	40.215219	-2.135763	1617.263844	4.561482	40.271893	1.000000	1.000000	1.000000	
7.701924	634.769373	568.789813	35.269373	3.289813	1243.928641	10.822873	35.422472	1.000000	1.000000	1.000000	
7.800664	632.055886	570.742829	32.555886	5.242829	1059.885717	27.487261	32.975339	1.000000	1.000000	1.000000	
7.901680	630.779160	571.475925	31.279160	5.975925	978.385822	35.711685	31.844898	1.000000	1.000000	1.000000	
7.998730	629.410393	572.332261	29.910393	6.832261	894.631612	46.679796	30.680799	1.000000	1.000000	1.000000	
8.099161	631.781276	576.888237	32.281276	11.388237	1042.080749	129.691936	34.231165	1.000000	1.000000	1.000000	
8.201846	634.671638	581.567452	35.171638	16.067452	1237.044119	258.163015	38.667908	1.000000	1.000000	1.000000	
8.298423	640.131320	586.123427	40.631320	20.623427	1650.904204	425.325756	45.565666	1.000000	1.000000	1.000000	
8.400818	646.018443	590.679403	46.518443	25.179403	2163.965535	634.002319	52.895821	1.000000	1.000000	1.000000	
8.501827	651.936765	595.358618	52.436765	29.858618	2749.614369	891.537069	60.341954	1.000000	1.000000	1.000000	
8.599270	657.702208	599.914593	58.202208	34.414593	3387.497005	1184.364234	67.615540	1.000000	1.000000	1.000000	
8.701009	656.800210	606.908849	57.300210	41.408849	3283.314110	1714.692746	70.696583	1.000000	1.000000	1.000000	
8.802098	655.898213	613.903104	56.398213	48.403104	3180.758414	2342.860473	74.321053	1.000000	1.000000	1.000000	
8.898490	654.628055	620.958199	55.128055	55.458199	3039.102485	3075.611867	78.196639	1.000000	1.000000	1.000000	
9.001089	652.687098	628.074135	53.187098	62.574135	2828.867374	3915.522321	82.124233	1.000000	1.000000	1.000000	
9.102230	650.441940	635.129230	50.941940	69.629230	2595.081281	4848.229659	86.274625	1.000000	1.000000	1.000000	
9.198519	648.104743	642.184325	48.604743	76.684325	2362.421020	5880.485737	90.790455	1.000000	1.000000	1.000000	
9.301060	645.706705	649.178581	46.206705	83.678581	2135.059610	7002.104844	95.588516	1.000000	1.000000	1.000000	
9.402157	642.942068	656.294516	43.442068	90.794516	1887.213248	8243.644114	100.652160	1.000000	1.000000	1.000000	
9.499258	639.751550	662.739651	40.251550	97.239651	1620.187294	9455.549765	105.241328	1.000000	1.000000	1.000000	
9.601202	636.682713	665.459507	37.182713	99.959507	1382.554122	9991.902943	106.651100	1.000000	1.000000	1.000000	
9.702137	633.645075	666.925122	34.145075	101.425122	1165.886157	10287.055340	107.018417	1.000000	1.000000	1.000000	
9.799450	630.668278	667.687177	31.168278	102.187177	971.461531	10442.219175	106.834829	1.000000	1.000000	1.000000	
9.900875	627.599440	667.471112	28.099440	101.971112	789.578534	10398.107780	105.771860	1.000000	1.000000	1.000000	
10.001989	624.530603	666.061648	25.030603	100.561648	626.531066	10112.645008	103.629996	1.000000	1.000000	1.000000	
10.099541	621.461765	664.101503	21.961765	98.601503	482.319125	9722.256417	101.017699	1.000000	1.000000	1.000000	
10.201051	616.326813	659.863854	16.826813	94.363854	283.141632	8904.536954	95.852379	1.000000	1.000000	1.000000	
10.302019	611.223061	654.769765	11.723061	89.269765	137.430152	7969.090945	90.036221	1.000000	1.000000	1.000000	
10.398441	606.180149	649.401116	6.680149	83.901116	44.624384	7039.397259	84.166630	1.000000	1.000000	1.000000	
10.501086	601.076396	642.991947	1.576396	77.491947	2.485025	6005.001836	77.507979	1.000000	1.000000	1.000000	
10.602674	595.972644	636.186538	-3.527356	70.686538	12.442239	4996.586634	70.774493	1.000000	1.000000	1.000000	
10.698648	591.233932	629.012969	-8.266068	63.512969	68.327881	4033.897206	64.048615	1.000000	1.000000	1.000000	
10.799532	587.897660	621.533640	-11.602340	56.033640	134.614299	3139.768784	57.222225	1.000000	1.000000	1.000000	
10.905198	584.623788	614.054311	-14.876212	48.554311	221.301696	2357.521088	50.782111	1.000000	1.000000	1.000000	
10.998527	581.716515	606.514142	-17.783485	41.014142	316.252325	1682.159815	44.703603	1.000000	1.000000	1.000000	
11.098647	578.809243	599.034813	-20.690757	33.534813	428.107417	1124.583656	39.404201	1.000000	1.000000	1.000000	
11.198593	576.086051	591.555484	-23.413949	26.055484	548.213007	678.888223	35.030005	1.000000	1.000000	1.000000	
11.319483	574.156899	584.076154	-25.343101	18.576154	642.272777	345.073516	31.422067	1.000000	1.000000	1.000000	
11.401237	573.268267	576.810545	-26.231733	11.310545	688.103835	127.928438	28.566279	1.000000	1.000000	1.000000	
11.502014	572.624554	570.983256	-26.875446	5.483256	722.289573	30.066101	27.429103	1.000000	1.000000	1.000000	
11.599394	571.735922	567.694087	-27.764078	2.194087	770.844012	4.814019	27.850638	1.000000	1.000000	1.000000	
11.699909	570.786450	565.935278	-28.713550	0.435278	824.467949	0.189467	28.716849	1.000000	1.000000	1.000000	
11.798474	569.897818	564.266949	-29.602182	-1.233051	876.289185	1.520414	29.627852	1.000000	1.000000	1.000000	
11.904306	568.887506	563.517460	-30.612494	-1.982540	937.124807	3.930464	30.676624	1.000000	1.000000	1.000000	
11.999225	567.938034	563.746091	-31.561966	-1.753909	996.157728	3.076196	31.610662	1.000000	1.000000	1.000000	
12.099422	567.049401	564.219642	-32.450599	-1.280358	1053.041354	1.639316	32.475847	1.000000	1.000000	1.000000	
12.198540	566.039089	564.693193	-33.460911	-0.806807	1119.632555	0.650937	33.470636	1.000000	1.000000	1.000000	
12.301291	565.150457	565.105904	-34.349543	-0.394096	1179.891107	0.155312	34.351804	1.000000	1.000000	1.000000	
12.403036	564.261825	565.487415	-35.238175	-0.012585	1241.728993	0.000158	35.238177	1.000000	1.000000	1.000000	
12.512695	563.251513	565.900126	-36.248487	0.400126	1313.952840	0.160101	36.250696	1.000000	1.000000	1.000000	
12.600913	562.302040	566.373677	-37.197960	0.873677	1383.688198	0.763311	37.208218	1.000000	1.000000	1.000000	
12.702088	561.260528	566.847228	-38.239472	1.347228	1462.257202	1.815023	38.263197	1.000000	1.000000	1.000000	
12.798479	560.371896	567.228739	-39.128104	1.728739	1531.008520	2.988538	39.166274	1.000000	1.000000	1.000000	
12.900947	559.636144	567.181250	-39.863856	1.681250	1589.127028	2.826600	39.899294	1.000000	1.000000	1.000000	
13.001917	559.603952	566.584641	-39.896048	1.084641	1591.694674	1.176445	39.910790	1.000000	1.000000	1.000000	
13.098456	559.632599	565.988032	-39.867401	0.488032	1589.409625	0.238175	39.870388	1.000000	1.000000	1.000000	
13.200893	559.508367	565.391423	-39.991633	-0.108577	1599.330687	0.011789	39.991780	1.000000	1.000000	1.000000	
13.302175	559.384135	564.732413	-40.115865	-0.767587	1609.282617	0.589189	40.123208	1.000000	1.000000	1.000000	
13.398673	565.439995	557.708048	-34.060005	-7.791952	1160.083928	60.714521	34.939926	1.000000	1.000000	1.000000	
13.500924	571.495855	550.683682	-28.004145	-14.816318	784.232121	219.523283	31.682099	1.000000	1.000000	1.000000	
13.602019	577.551715	543.322356	-21.948285	-22.177644	481.727198	491.847889	31.202165	1.000000	1.000000	1.000000	
13.698682	583.668415	535.961030	-15.831585	-29.538970	250.639069	872.550730	33.514024	1.000000	1.000000	1.000000	
13.798557	589.663436	528.599705	-9.836564	-36.900295	96.758000	1361.631806	38.188870	1.000000	1.000000	1.000000	
13.901423	595.719296	521.238379	-3.780704	-44.261621	14.293725	1959.091117	44.422796	1.000000	1.000000	1.000000	
14.001921	600.704996	513.937893	1.204996	-51.562107	1.452015	2658.650883	51.576185	1.000000	1.000000	1.000000	
14.103559	603.824936	507.707567	4.324936	-57.792433	18.705070	3339.965293	57.954037	1.000000	1.000000	1.000000	
14.198882	606.884036	502.517761	7.384036	-62.982239	54.523987	3966.762382	63.413613	1.000000	1.000000	1.000000	
14.298502	609.727856	498.276436	10.227856	-67.223564	104.609039	4519.007612	67.997181	1.000000	1.000000	1.000000	
14.401161	612.326756	495.226950	12.826756	-70.273050	164.525672	4938.301584	71.434076	1.000000	1.000000	1.000000	
14.502040	613.615256	492.363104	14.115256	-73.136896	199.240458	5349.005554	74.486549	1.000000	1.000000	1.000000	
14.598616	613.502876	490.870498	14.002876	-74.629502	196.080545	5569.562534	75.931832	1.000000	1.000000	1.000000	
14.700614	612.415496	490.747572	12.915496	-74.752428	166.810047	5587.925425	75.859973	1.000000	1.000000	1.000000	
14.801911	610.963076	491.356287	11.463076	-74.143713	131.402123	5497.290228	75.024612	1.000000	1.000000	1.000000	
14.898524	608.900697	492.788681	9.400697	-72.711319	88.373096	5286.935929	73.316499	1.000000	1.000000	1.000000	
14.999403	606.746277	494.372395	7.246277	-71.127605	52.508526	5059.136181	71.495767	1.000000	1.000000	1.000000	
15.103754	606.685437	494.281915	7.185437	-71.218085	51.630500	5072.015619	71.579649	1.000000	1.000000	1.000000	
15.198320	603.830577	495.775149	4.330577	-69.724851	18.753895	4861.554805	69.859206	1.000000	1.000000	1.000000	
15.300724	600.793197	497.268384	1.293197	-68.231616	1.672358	4655.553488	68.243870	1.000000	1.000000	1.000000	
15.401682	597.694977	498.700778	-1.805023	-66.799222	3.258108	4462.136096	66.823605	1.000000	1.000000	1.000000	
15.497886	594.657597	500.194012	-4.842403	-65.305988	23.448866	4264.872076	65.485273	1.000000	1.000000	1.000000	
15.705317	591.559377	501.626406	-7.940623	-63.873594	63.053491	4079.835991	64.365282	1.000000	1.000000	1.000000	
15.710101	588.461157	503.058800	-11.038843	-62.441200	121.856050	3898.903412	63.409459	1.000000	1.000000	1.000000	
15.799118	585.362937	504.491195	-14.137063	-61.008805	199.856541	3722.074339	62.625321	1.000000	1.000000	1.000000	
15.901827	582.264717	505.984429	-17.235283	-59.515571	297.054966	3542.103216	61.960941	1.000000	1.000000	1.000000	
16.029518	579.166498	507.416823	-20.333502	-58.083177	413.451324	3373.655449	61.539473	1.000000	1.000000	1.000000	
16.099825	576.311638	508.910057	-23.188362	-56.589943	537.700151	3202.421624	61.156535	1.000000	1.000000	1.000000	
16.202665	578.545498	509.122531	-20.954502	-56.377469	439.091167	3178.418962	60.145741	1.000000	1.000000	1.000000	
16.298362	581.083558	509.062006	-18.416442	-56.437994	339.165344	3185.247206	59.366763	1.000000	1.000000	1.000000	
16.399007	576.491247	509.508564	-23.008753	-55.991436	529.402712	3135.040891	60.534648	1.000000	1.000000	1.000000	
16.498109	572.051816	509.072163	-27.448184	-56.427837	753.402786	3184.100833	62.749531	1.000000	1.000000	1.000000	
16.599554	567.612386	508.574921	-31.887614	-56.925079	1016.819951	3240.464610	65.247870	1.000000	1.000000	1.000000	
16.698131	563.172955	508.077680	-36.327045	-57.422320	1319.654207	3297.322885	67.948341	1.000000	1.000000	1.000000	
16.802379	558.733524	507.641278	-40.766476	-57.858722	1661.905552	3347.631708	70.778085	1.000000	1.000000	1.000000	
