AF-MATB V. 3.03
Programmed using MATLAB 7.5.0 and other Custom MATLAB Functions.

William Daniel Miller, Jr.
Air Force Research Laboratory
711th Human Performance Wing
Human Effectiveness Directorate
Applied Neuroscience Branch

RMS Target Value is:	2500.000000	
Main Tank Automation Lower Limit is:	2350.000000	
Main Tank Automation Upper Limit is:	2650.000000	


Event Time	Tank A Value	Tank B Value	Tank A Difference	Tank B Difference	Tank A Deviation	Tank B Deviation	Euclidian Distance From Target	Tank A In Range?	Tank B In Range?	Both In Range?
0.089567	2499.597999	2499.597999	-0.402001	-0.402001	0.161605	0.161605	0.568516	1.000000	1.000000	1.000000	
0.100514	2496.758604	2496.758604	-3.241396	-3.241396	10.506646	10.506646	4.584026	1.000000	1.000000	1.000000	
0.199664	2493.401664	2493.401664	-6.598336	-6.598336	43.538041	43.538041	9.331457	1.000000	1.000000	1.000000	
0.303204	2490.029561	2490.029561	-9.970439	-9.970439	99.409655	99.409655	14.100330	1.000000	1.000000	1.000000	
0.403184	2486.696551	2486.696551	-13.303449	-13.303449	176.981768	176.981768	18.813919	1.000000	1.000000	1.000000	
0.499312	2483.414587	2483.414587	-16.585413	-16.585413	275.075928	275.075928	23.455316	1.000000	1.000000	1.000000	
0.603367	2480.019195	2480.019195	-19.980805	-19.980805	399.232550	399.232550	28.257125	1.000000	1.000000	1.000000	
0.699015	2476.750170	2476.750170	-23.249830	-23.249830	540.554597	540.554597	32.880225	1.000000	1.000000	1.000000	
0.799749	2473.395004	2473.395004	-26.604996	-26.604996	707.825794	707.825794	37.625146	1.000000	1.000000	1.000000	
0.898832	2470.090351	2470.090351	-29.909649	-29.909649	894.587111	894.587111	42.298631	1.000000	1.000000	1.000000	
1.002897	2466.697953	2466.697953	-33.302047	-33.302047	1109.026308	1109.026308	47.096206	1.000000	1.000000	1.000000	
1.225896	2459.515413	2459.515413	-40.484587	-40.484587	1639.001807	1639.001807	57.253852	1.000000	1.000000	1.000000	
1.234718	2458.997161	2458.997161	-41.002839	-41.002839	1681.232833	1681.232833	57.986771	1.000000	1.000000	1.000000	
1.299663	2456.739255	2456.739255	-43.260745	-43.260745	1871.492068	1871.492068	61.179932	1.000000	1.000000	1.000000	
1.399653	2453.399615	2453.399615	-46.600385	-46.600385	2171.595880	2171.595880	65.902896	1.000000	1.000000	1.000000	
1.501815	2450.083456	2450.083456	-49.916544	-49.916544	2491.661340	2491.661340	70.592653	1.000000	1.000000	1.000000	
1.603171	2446.694887	2446.694887	-53.305113	-53.305113	2841.435099	2841.435099	75.384814	1.000000	1.000000	1.000000	
1.699132	2443.418056	2443.418056	-56.581944	-56.581944	3201.516433	3201.516433	80.018953	1.000000	1.000000	1.000000	
1.799650	2440.066697	2440.066697	-59.933303	-59.933303	3592.000861	3592.000861	84.758491	1.000000	1.000000	1.000000	
1.899442	2436.745512	2436.745512	-63.254488	-63.254488	4001.130222	4001.130222	89.455354	1.000000	1.000000	1.000000	
1.998358	2433.460170	2433.460170	-66.539830	-66.539830	4427.549014	4427.549014	94.101530	1.000000	1.000000	1.000000	
2.107004	2430.068521	2430.068521	-69.931479	-69.931479	4890.411793	4890.411793	98.898046	1.000000	1.000000	1.000000	
2.199039	2426.767973	2426.767973	-73.232027	-73.232027	5362.929742	5362.929742	103.565725	1.000000	1.000000	1.000000	
2.299682	2423.425468	2423.425468	-76.574532	-76.574532	5863.658990	5863.658990	108.292742	1.000000	1.000000	1.000000	
2.419964	2419.404705	2419.404705	-80.595295	-80.595295	6495.601551	6495.601551	113.978959	1.000000	1.000000	1.000000	
2.498858	2416.765114	2416.765114	-83.234886	-83.234886	6928.046243	6928.046243	117.711905	1.000000	1.000000	1.000000	
2.601387	2413.422331	2413.422331	-86.577669	-86.577669	7495.692853	7495.692853	122.439314	1.000000	1.000000	1.000000	
2.699732	2410.098751	2410.098751	-89.901249	-89.901249	8082.234566	8082.234566	127.139566	1.000000	1.000000	1.000000	
2.802067	2406.729386	2406.729386	-93.270614	-93.270614	8699.407518	8699.407518	131.904568	1.000000	1.000000	1.000000	
2.912178	2402.983253	2402.983253	-97.016747	-97.016747	9412.249128	9412.249128	137.202399	1.000000	1.000000	1.000000	
3.001025	2400.097603	2400.097603	-99.902397	-99.902397	9980.488998	9980.488998	141.283325	1.000000	1.000000	1.000000	
3.102024	2396.731616	2396.731616	-103.268384	-103.268384	10664.359124	10664.359124	146.043549	1.000000	1.000000	1.000000	
3.199017	2393.431603	2393.431603	-106.568397	-106.568397	11356.823197	11356.823197	150.710472	1.000000	1.000000	1.000000	
3.298744	2390.094444	2390.094444	-109.905556	-109.905556	12079.231234	12079.231234	155.429928	1.000000	1.000000	1.000000	
3.398628	2386.766823	2386.766823	-113.233177	-113.233177	12821.752438	12821.752438	160.135895	1.000000	1.000000	1.000000	
3.502073	2383.395554	2383.395554	-116.604446	-116.604446	13596.596839	13596.596839	164.903589	1.000000	1.000000	1.000000	
3.598806	2380.099733	2380.099733	-119.900267	-119.900267	14376.074118	14376.074118	169.564584	1.000000	1.000000	1.000000	
3.702264	2376.727031	2376.727031	-123.272969	-123.272969	15196.224878	15196.224878	174.334305	1.000000	1.000000	1.000000	
3.798596	2373.433305	2373.433305	-126.566695	-126.566695	16019.128165	16019.128165	178.992336	1.000000	1.000000	1.000000	
3.919673	2370.104037	2370.104037	-129.895963	-129.895963	16872.961077	16872.961077	183.700632	1.000000	1.000000	1.000000	
3.998825	2366.767498	2366.767498	-133.232502	-133.232502	17750.899458	17750.899458	188.419211	1.000000	1.000000	1.000000	
4.099958	2363.436819	2363.436819	-136.563181	-136.563181	18649.502384	18649.502384	193.129503	1.000000	1.000000	1.000000	
4.198784	2360.101991	2360.101991	-139.898009	-139.898009	19571.452947	19571.452947	197.845662	1.000000	1.000000	1.000000	
4.300284	2356.752642	2356.752642	-143.247358	-143.247358	20519.805544	20519.805544	202.582356	1.000000	1.000000	1.000000	
4.399513	2353.426389	2353.426389	-146.573611	-146.573611	21483.823309	21483.823309	207.286388	1.000000	1.000000	1.000000	
4.501110	2350.097613	2350.097613	-149.902387	-149.902387	22470.725528	22470.725528	211.993988	1.000000	1.000000	1.000000	
4.599632	2346.754808	2346.754808	-153.245192	-153.245192	23484.088737	23484.088737	216.721428	0.000000	0.000000	0.000000	
4.698856	2343.432512	2343.432512	-156.567488	-156.567488	24513.378276	24513.378276	221.419865	0.000000	0.000000	0.000000	
4.801219	2340.094733	2340.094733	-159.905267	-159.905267	25569.694501	25569.694501	226.140198	0.000000	0.000000	0.000000	
4.897835	2336.799254	2336.799254	-163.200746	-163.200746	26634.483636	26634.483636	230.800709	0.000000	0.000000	0.000000	
5.002328	2333.399756	2333.399756	-166.600244	-166.600244	27755.641246	27755.641246	235.608324	0.000000	0.000000	0.000000	
5.100640	2330.103507	2330.103507	-169.896493	-169.896493	28864.818290	28864.818290	240.269924	0.000000	0.000000	0.000000	
5.201734	2326.733735	2326.733735	-173.266265	-173.266265	30021.198471	30021.198471	245.035501	0.000000	0.000000	0.000000	
5.298434	2323.437764	2323.437764	-176.562236	-176.562236	31174.223072	31174.223072	249.696708	0.000000	0.000000	0.000000	
5.400968	2320.102230	2320.102230	-179.897770	-179.897770	32363.207498	32363.207498	254.413866	0.000000	0.000000	0.000000	
5.498490	2316.771872	2316.771872	-183.228128	-183.228128	33572.546967	33572.546967	259.123704	0.000000	0.000000	0.000000	
5.647686	2313.384500	2313.384500	-186.615500	-186.615500	34825.344888	34825.344888	263.914171	0.000000	0.000000	0.000000	
5.706314	2309.849441	2309.849441	-190.150559	-190.150559	36157.235137	36157.235137	268.913500	0.000000	0.000000	0.000000	
5.801820	2306.734561	2306.734561	-193.265439	-193.265439	37351.529986	37351.529986	273.318605	0.000000	0.000000	0.000000	
5.897570	2303.463247	2303.463247	-196.536753	-196.536753	38626.695253	38626.695253	277.944942	0.000000	0.000000	0.000000	
6.003137	2300.094117	2300.094117	-199.905883	-199.905883	39962.362125	39962.362125	282.709611	0.000000	0.000000	0.000000	
6.104633	2296.766859	2296.766859	-203.233141	-203.233141	41303.709572	41303.709572	287.415064	0.000000	0.000000	0.000000	
6.199242	2293.429401	2293.429401	-206.570599	-206.570599	42671.412575	42671.412575	292.134943	0.000000	0.000000	0.000000	
6.301102	2290.105286	2290.105286	-209.894714	-209.894714	44055.790802	44055.790802	296.835951	0.000000	0.000000	0.000000	
6.398564	2286.772276	2286.772276	-213.227724	-213.227724	45466.062293	45466.062293	301.549539	0.000000	0.000000	0.000000	
6.508901	2283.397030	2283.397030	-216.602970	-216.602970	46916.846814	46916.846814	306.322858	0.000000	0.000000	0.000000	
6.601229	2280.097829	2280.097829	-219.902171	-219.902171	48356.964668	48356.964668	310.988632	0.000000	0.000000	0.000000	
6.701898	2276.735970	2276.735970	-223.264030	-223.264030	49846.827046	49846.827046	315.743019	0.000000	0.000000	0.000000	
6.798462	2273.437989	2273.437989	-226.562011	-226.562011	51330.344894	51330.344894	320.407069	0.000000	0.000000	0.000000	
6.900828	2270.102712	2270.102712	-229.897288	-229.897288	52852.763216	52852.763216	325.123863	0.000000	0.000000	0.000000	
7.002051	2266.728727	2266.728727	-233.271273	-233.271273	54415.486858	54415.486858	329.895398	0.000000	0.000000	0.000000	
7.098483	2263.438295	2263.438295	-236.561705	-236.561705	55961.440431	55961.440431	334.548772	0.000000	0.000000	0.000000	
7.200691	2260.103253	2260.103253	-239.896747	-239.896747	57550.449392	57550.449392	339.265234	0.000000	0.000000	0.000000	
7.298719	2256.767997	2256.767997	-243.232003	-243.232003	59161.807395	59161.807395	343.981998	0.000000	0.000000	0.000000	
7.402036	2253.397263	2253.397263	-246.602737	-246.602737	60812.910076	60812.910076	348.748936	0.000000	0.000000	0.000000	
7.517439	2249.471280	2249.471280	-250.528720	-250.528720	62764.639633	62764.639633	354.301114	0.000000	0.000000	0.000000	
7.599067	2246.767041	2246.767041	-253.232959	-253.232959	64126.931602	64126.931602	358.125485	0.000000	0.000000	0.000000	
7.701777	2243.401503	2243.401503	-256.598497	-256.598497	65842.788485	65842.788485	362.885074	0.000000	0.000000	0.000000	
7.800515	2240.105554	2240.105554	-259.894446	-259.894446	67545.123215	67545.123215	367.546251	0.000000	0.000000	0.000000	
7.901535	2236.742582	2236.742582	-263.257418	-263.257418	69304.467898	69304.467898	372.302210	0.000000	0.000000	0.000000	
7.998666	2233.432732	2233.432732	-266.567268	-266.567268	71058.108187	71058.108187	376.983045	0.000000	0.000000	0.000000	
8.099104	2230.119118	2230.119118	-269.880882	-269.880882	72835.690243	72835.690243	381.669203	0.000000	0.000000	0.000000	
8.201699	2226.735125	2226.735125	-273.264875	-273.264875	74673.691700	74673.691700	386.454892	0.000000	0.000000	0.000000	
8.298363	2223.438406	2223.438406	-276.561594	-276.561594	76486.315348	76486.315348	391.117157	0.000000	0.000000	0.000000	
8.400671	2220.103064	2220.103064	-279.896936	-279.896936	78342.294528	78342.294528	395.834042	0.000000	0.000000	0.000000	
8.501679	2216.735581	2216.735581	-283.264419	-283.264419	80238.731135	80238.731135	400.596383	0.000000	0.000000	0.000000	
8.599212	2213.438990	2213.438990	-286.561010	-286.561010	82117.212631	82117.212631	405.258467	0.000000	0.000000	0.000000	
8.700860	2210.103627	2210.103627	-289.896373	-289.896373	84039.907144	84039.907144	409.975383	0.000000	0.000000	0.000000	
8.801948	2206.733214	2206.733214	-293.266786	-293.266786	86005.408045	86005.408045	414.741867	0.000000	0.000000	0.000000	
8.898430	2203.438333	2203.438333	-296.561667	-296.561667	87948.822239	87948.822239	419.401531	0.000000	0.000000	0.000000	
9.000941	2200.099399	2200.099399	-299.900601	-299.900601	89940.370475	89940.370475	424.123497	0.000000	0.000000	0.000000	
9.102084	2196.732215	2196.732215	-303.267785	-303.267785	91971.349517	91971.349517	428.885415	0.000000	0.000000	0.000000	
9.198459	2193.438981	2193.438981	-306.561019	-306.561019	93979.658288	93979.658288	433.542751	0.000000	0.000000	0.000000	
9.300910	2190.103725	2190.103725	-309.896275	-309.896275	96035.701098	96035.701098	438.259515	0.000000	0.000000	0.000000	
9.402012	2186.733590	2186.733590	-313.266410	-313.266410	98135.843688	98135.843688	443.025606	0.000000	0.000000	0.000000	
9.499191	2183.432294	2183.432294	-316.567706	-316.567706	100215.112519	100215.112519	447.694343	0.000000	0.000000	0.000000	
9.601054	2180.102534	2180.102534	-319.897466	-319.897466	102334.388691	102334.388691	452.403335	0.000000	0.000000	0.000000	
9.701986	2176.735735	2176.735735	-323.264265	-323.264265	104499.785115	104499.785115	457.164708	0.000000	0.000000	0.000000	
9.799364	2173.430034	2173.430034	-326.569966	-326.569966	106647.943011	106647.943011	461.839676	0.000000	0.000000	0.000000	
9.900726	2170.106112	2170.106112	-329.893888	-329.893888	108829.977430	108829.977430	466.540411	0.000000	0.000000	0.000000	
10.001837	2166.735912	2166.735912	-333.264088	-333.264088	111064.952110	111064.952110	471.306593	0.000000	0.000000	0.000000	
10.099476	2163.439107	2163.439107	-336.560893	-336.560893	113273.234490	113273.234490	475.968979	0.000000	0.000000	0.000000	
10.200903	2160.103616	2160.103616	-339.896384	-339.896384	115529.551724	115529.551724	480.686076	0.000000	0.000000	0.000000	
10.301866	2156.736004	2156.736004	-343.263996	-343.263996	117830.170731	117830.170731	485.448598	0.000000	0.000000	0.000000	
10.398378	2153.439606	2153.439606	-346.560394	-346.560394	120104.106976	120104.106976	490.110410	0.000000	0.000000	0.000000	
10.500934	2150.104649	2150.104649	-349.895351	-349.895351	122426.756577	122426.756577	494.826751	0.000000	0.000000	0.000000	
10.602520	2146.728013	2146.728013	-353.271987	-353.271987	124801.097067	124801.097067	499.602036	0.000000	0.000000	0.000000	
10.698584	2143.438414	2143.438414	-356.561586	-356.561586	127136.164309	127136.164309	504.254230	0.000000	0.000000	0.000000	
10.799441	2140.103522	2140.103522	-359.896478	-359.896478	129525.474805	129525.474805	508.970480	0.000000	0.000000	0.000000	
10.905048	2136.642093	2136.642093	-363.357907	-363.357907	132028.968735	132028.968735	513.865680	0.000000	0.000000	0.000000	
10.998465	2133.435769	2133.435769	-366.564231	-366.564231	134369.335406	134369.335406	518.400107	0.000000	0.000000	0.000000	
11.098585	2130.106779	2130.106779	-369.893221	-369.893221	136820.994879	136820.994879	523.108010	0.000000	0.000000	0.000000	
11.198531	2126.769192	2126.769192	-373.230808	-373.230808	139301.235884	139301.235884	527.828070	0.000000	0.000000	0.000000	
11.319426	2123.435091	2123.435091	-376.564909	-376.564909	141801.130582	141801.130582	532.543201	0.000000	0.000000	0.000000	
11.401087	2120.096991	2120.096991	-379.903009	-379.903009	144326.296232	144326.296232	537.263988	0.000000	0.000000	0.000000	
11.501861	2116.737399	2116.737399	-383.262601	-383.262601	146890.221600	146890.221600	542.015169	0.000000	0.000000	0.000000	
11.599335	2113.440380	2113.440380	-386.559620	-386.559620	149428.340019	149428.340019	546.677858	0.000000	0.000000	0.000000	
11.699756	2110.119003	2110.119003	-389.880997	-389.880997	152007.191869	152007.191869	551.374994	0.000000	0.000000	0.000000	
11.798411	2106.772691	2106.772691	-393.227309	-393.227309	154627.716662	154627.716662	556.107394	0.000000	0.000000	0.000000	
11.904152	2103.326937	2103.326937	-396.673063	-396.673063	157349.518924	157349.518924	560.980426	0.000000	0.000000	0.000000	
11.999156	2100.093518	2100.093518	-399.906482	-399.906482	159925.194311	159925.194311	565.553170	0.000000	0.000000	0.000000	
12.099362	2096.777937	2096.777937	-403.222063	-403.222063	162588.032355	162588.032355	570.242111	0.000000	0.000000	0.000000	
12.198476	2093.435944	2093.435944	-406.564056	-406.564056	165294.331291	165294.331291	574.968401	0.000000	0.000000	0.000000	
12.301138	2090.095043	2090.095043	-409.904957	-409.904957	168022.073923	168022.073923	579.693150	0.000000	0.000000	0.000000	
12.402880	2086.730468	2086.730468	-413.269532	-413.269532	170791.706363	170791.706363	584.451378	0.000000	0.000000	0.000000	
12.512632	2082.968788	2082.968788	-417.031212	-417.031212	173915.031510	173915.031510	589.771195	0.000000	0.000000	0.000000	
12.600755	2080.107111	2080.107111	-419.892889	-419.892889	176310.038604	176310.038604	593.818219	0.000000	0.000000	0.000000	
12.701933	2076.738002	2076.738002	-423.261998	-423.261998	179150.719198	179150.719198	598.582858	0.000000	0.000000	0.000000	
12.798414	2073.440919	2073.440919	-426.559081	-426.559081	181952.649886	181952.649886	603.245638	0.000000	0.000000	0.000000	
12.900788	2070.105620	2070.105620	-429.894380	-429.894380	184809.177955	184809.177955	607.962463	0.000000	0.000000	0.000000	
13.001761	2066.737773	2066.737773	-433.262227	-433.262227	187716.157445	187716.157445	612.725318	0.000000	0.000000	0.000000	
13.098392	2063.441139	2063.441139	-436.558861	-436.558861	190583.639193	190583.639193	617.387462	0.000000	0.000000	0.000000	
13.200738	2060.106033	2060.106033	-439.893967	-439.893967	193506.702434	193506.702434	622.104015	0.000000	0.000000	0.000000	
13.302020	2056.732390	2056.732390	-443.267610	-443.267610	196486.173900	196486.173900	626.875066	0.000000	0.000000	0.000000	
13.398610	2053.437104	2053.437104	-446.562896	-446.562896	199418.420528	199418.420528	631.535305	0.000000	0.000000	0.000000	
13.500764	2050.106403	2050.106403	-449.893597	-449.893597	202404.248889	202404.248889	636.245627	0.000000	0.000000	0.000000	
13.601863	2046.737187	2046.737187	-453.262813	-453.262813	205447.177715	205447.177715	641.010418	0.000000	0.000000	0.000000	
13.698618	2043.434544	2043.434544	-456.565456	-456.565456	208452.015906	208452.015906	645.681060	0.000000	0.000000	0.000000	
13.798492	2040.102153	2040.102153	-459.897847	-459.897847	211506.029272	211506.029272	650.393772	0.000000	0.000000	0.000000	
13.901362	2036.804044	2036.804044	-463.195956	-463.195956	214550.493766	214550.493766	655.058003	0.000000	0.000000	0.000000	
14.001761	2033.406108	2033.406108	-466.593892	-466.593892	217709.860418	217709.860418	659.863411	0.000000	0.000000	0.000000	
14.103403	2030.098353	2030.098353	-469.901647	-469.901647	220807.557604	220807.557604	664.541282	0.000000	0.000000	0.000000	
14.198789	2026.768936	2026.768936	-473.231064	-473.231064	223947.640327	223947.640327	669.249789	0.000000	0.000000	0.000000	
14.298438	2023.452306	2023.452306	-476.547694	-476.547694	227097.704339	227097.704339	673.940212	0.000000	0.000000	0.000000	
14.401005	2020.104433	2020.104433	-479.895567	-479.895567	230299.755116	230299.755116	678.674819	0.000000	0.000000	0.000000	
14.501885	2016.734469	2016.734469	-483.265531	-483.265531	233545.573596	233545.573596	683.440668	0.000000	0.000000	0.000000	
14.598532	2013.445876	2013.445876	-486.554124	-486.554124	236734.915811	236734.915811	688.091441	0.000000	0.000000	0.000000	
14.700458	2010.110470	2010.110470	-489.889530	-489.889530	239991.751415	239991.751415	692.808417	0.000000	0.000000	0.000000	
14.801750	2006.738752	2006.738752	-493.261248	-493.261248	243306.658450	243306.658450	697.576746	0.000000	0.000000	0.000000	
14.898450	2003.441391	2003.441391	-496.558609	-496.558609	246570.451913	246570.451913	702.239919	0.000000	0.000000	0.000000	
14.999341	2000.103398	2000.103398	-499.896602	-499.896602	249896.612627	249896.612627	706.960554	0.000000	0.000000	0.000000	
15.103589	1996.733990	1996.733990	-503.266010	-503.266010	253276.677002	253276.677002	711.725617	0.000000	0.000000	0.000000	
15.198255	1993.442232	1993.442232	-506.557768	-506.557768	256600.772621	256600.772621	716.380866	0.000000	0.000000	0.000000	
15.300564	1990.105757	1990.105757	-509.894243	-509.894243	259992.139181	259992.139181	721.099354	0.000000	0.000000	0.000000	
15.401522	1986.740540	1986.740540	-513.259460	-513.259460	263435.273129	263435.273129	725.858489	0.000000	0.000000	0.000000	
15.497797	1983.456331	1983.456331	-516.543669	-516.543669	266817.361931	266817.361931	730.503062	0.000000	0.000000	0.000000	
15.705252	1980.090729	1980.090729	-519.909271	-519.909271	270305.649660	270305.649660	735.262742	0.000000	0.000000	0.000000	
15.710049	1976.420665	1976.420665	-523.579335	-523.579335	274135.320234	274135.320234	740.452997	0.000000	0.000000	0.000000	
