AF-MATB V. 3.03
Programmed using MATLAB 7.5.0 and other Custom MATLAB Functions.

William Daniel Miller, Jr.
Air Force Research Laboratory
711th Human Performance Wing
Human Effectiveness Directorate
Applied Neuroscience Branch

RMS Target Value is:	2500.000000	
Main Tank Automation Lower Limit is:	2350.000000	
Main Tank Automation Upper Limit is:	2650.000000	


Event Time	Tank A Value	Tank B Value	Tank A Difference	Tank B Difference	Tank A Deviation	Tank B Deviation	Euclidian Distance From Target	Tank A In Range?	Tank B In Range?	Both In Range?
0.101517	2499.566113	2499.566113	-0.433887	-0.433887	0.188258	0.188258	0.613609	1.000000	1.000000	1.000000	
0.113129	2496.337570	2496.337570	-3.662430	-3.662430	13.413394	13.413394	5.179458	1.000000	1.000000	1.000000	
0.198765	2493.437399	2493.437399	-6.562601	-6.562601	43.067737	43.067737	9.280920	1.000000	1.000000	1.000000	
0.298389	2490.111659	2490.111659	-9.888341	-9.888341	97.779283	97.779283	13.984226	1.000000	1.000000	1.000000	
0.401878	2486.741823	2486.741823	-13.258177	-13.258177	175.779250	175.779250	18.749893	1.000000	1.000000	1.000000	
0.498250	2483.444270	2483.444270	-16.555730	-16.555730	274.092205	274.092205	23.413338	1.000000	1.000000	1.000000	
0.601638	2480.072744	2480.072744	-19.927256	-19.927256	397.095518	397.095518	28.181395	1.000000	1.000000	1.000000	
0.698427	2476.773608	2476.773608	-23.226392	-23.226392	539.465272	539.465272	32.847078	1.000000	1.000000	1.000000	
0.798326	2473.440812	2473.440812	-26.559188	-26.559188	705.390482	705.390482	37.560364	1.000000	1.000000	1.000000	
0.897508	2470.139430	2470.139430	-29.860570	-29.860570	891.653628	891.653628	42.229223	1.000000	1.000000	1.000000	
1.001862	2466.736511	2466.736511	-33.263489	-33.263489	1106.459690	1106.459690	47.041677	1.000000	1.000000	1.000000	
1.098480	2463.444753	2463.444753	-36.555247	-36.555247	1336.286081	1336.286081	51.696926	1.000000	1.000000	1.000000	
1.201698	2460.076051	2460.076051	-39.923949	-39.923949	1593.921743	1593.921743	56.460991	1.000000	1.000000	1.000000	
1.298187	2456.780058	2456.780058	-43.219942	-43.219942	1867.963378	1867.963378	61.122228	1.000000	1.000000	1.000000	
1.401876	2453.404854	2453.404854	-46.595146	-46.595146	2171.107591	2171.107591	65.895487	1.000000	1.000000	1.000000	
1.501712	2450.077426	2450.077426	-49.922574	-49.922574	2492.263436	2492.263436	70.601182	1.000000	1.000000	1.000000	
1.598504	2446.779573	2446.779573	-53.220427	-53.220427	2832.413887	2832.413887	75.265050	1.000000	1.000000	1.000000	
1.701967	2443.403449	2443.403449	-56.596551	-56.596551	3203.169539	3203.169539	80.039609	1.000000	1.000000	1.000000	
1.802407	2440.068728	2440.068728	-59.931272	-59.931272	3591.757343	3591.757343	84.755617	1.000000	1.000000	1.000000	
1.898881	2436.770897	2436.770897	-63.229103	-63.229103	3997.919514	3997.919514	89.419456	1.000000	1.000000	1.000000	
1.998300	2433.444067	2433.444067	-66.555933	-66.555933	4429.692275	4429.692275	94.124304	1.000000	1.000000	1.000000	
2.116997	2430.067259	2430.067259	-69.932741	-69.932741	4890.588264	4890.588264	98.899831	1.000000	1.000000	1.000000	
2.198116	2426.783071	2426.783071	-73.216929	-73.216929	5360.718650	5360.718650	103.544374	1.000000	1.000000	1.000000	
2.298360	2423.442512	2423.442512	-76.557488	-76.557488	5861.048991	5861.048991	108.268638	1.000000	1.000000	1.000000	
2.401771	2420.074515	2420.074515	-79.925485	-79.925485	6388.083146	6388.083146	113.031705	1.000000	1.000000	1.000000	
2.498298	2416.779849	2416.779849	-83.220151	-83.220151	6925.593612	6925.593612	117.691067	1.000000	1.000000	1.000000	
2.598562	2413.440701	2413.440701	-86.559299	-86.559299	7492.512327	7492.512327	122.413335	1.000000	1.000000	1.000000	
2.702018	2410.069154	2410.069154	-89.930846	-89.930846	8087.557109	8087.557109	127.181422	1.000000	1.000000	1.000000	
2.798405	2406.772477	2406.772477	-93.227523	-93.227523	8691.371045	8691.371045	131.843627	1.000000	1.000000	1.000000	
2.898406	2403.442739	2403.442739	-96.557261	-96.557261	9323.304741	9323.304741	136.552589	1.000000	1.000000	1.000000	
2.998240	2400.111781	2400.111781	-99.888219	-99.888219	9977.656272	9977.656272	141.263274	1.000000	1.000000	1.000000	
3.098338	2396.777103	2396.777103	-103.222897	-103.222897	10654.966539	10654.966539	145.979221	1.000000	1.000000	1.000000	
3.198142	2393.447343	2393.447343	-106.552657	-106.552657	11353.468757	11353.468757	150.688213	1.000000	1.000000	1.000000	
3.301779	2390.073829	2390.073829	-109.926171	-109.926171	12083.763165	12083.763165	155.459082	1.000000	1.000000	1.000000	
3.398248	2386.779269	2386.779269	-113.220731	-113.220731	12818.933933	12818.933933	160.118293	1.000000	1.000000	1.000000	
3.498457	2383.437833	2383.437833	-116.562167	-116.562167	13586.738836	13586.738836	164.843798	1.000000	1.000000	1.000000	
3.598406	2380.113398	2380.113398	-119.886602	-119.886602	14372.797376	14372.797376	169.545259	1.000000	1.000000	1.000000	
3.702625	2376.720637	2376.720637	-123.279363	-123.279363	15197.801386	15197.801386	174.343347	1.000000	1.000000	1.000000	
3.797741	2373.463544	2373.463544	-126.536456	-126.536456	16011.474615	16011.474615	178.949572	1.000000	1.000000	1.000000	
3.901751	2370.082652	2370.082652	-129.917348	-129.917348	16878.517271	16878.517271	183.730875	1.000000	1.000000	1.000000	
3.997804	2366.794187	2366.794187	-133.205813	-133.205813	17743.788515	17743.788515	188.381467	1.000000	1.000000	1.000000	
4.103846	2363.418984	2363.418984	-136.581016	-136.581016	18654.374010	18654.374010	193.154726	1.000000	1.000000	1.000000	
4.197959	2360.119698	2360.119698	-139.880302	-139.880302	19566.498898	19566.498898	197.820620	1.000000	1.000000	1.000000	
4.301545	2356.753733	2356.753733	-143.246267	-143.246267	20519.493079	20519.493079	202.580814	1.000000	1.000000	1.000000	
4.397992	2356.094367	2353.456906	-143.905633	-146.543094	20708.831074	21474.878306	205.386731	1.000000	1.000000	1.000000	
4.501286	2355.420772	2350.088931	-144.579228	-149.911069	20903.153058	22473.328642	208.270213	1.000000	1.000000	1.000000	
4.597777	2354.762425	2346.797194	-145.237575	-153.202806	21093.953181	23471.099717	211.104365	1.000000	0.000000	0.000000	
4.698076	2354.094052	2343.455330	-145.905948	-156.544670	21288.545589	24506.233637	213.997148	1.000000	0.000000	0.000000	
4.799436	2353.423862	2340.104378	-146.576138	-159.895622	21484.564317	25566.610091	216.912827	1.000000	0.000000	0.000000	
4.898147	2352.760698	2336.788561	-147.239302	-163.211439	21679.411940	26637.973852	219.812160	1.000000	0.000000	0.000000	
4.998020	2352.094447	2333.457304	-147.905553	-166.542696	21876.052602	27736.469563	222.738686	1.000000	0.000000	0.000000	
5.101543	2351.420112	2330.085629	-148.579888	-169.914371	22075.983117	28870.893474	225.714148	1.000000	0.000000	0.000000	
5.198329	2350.759455	2326.782344	-149.240545	-173.217656	22272.740259	30004.356285	228.641852	1.000000	0.000000	0.000000	
5.297941	2350.094384	2323.456990	-149.905616	-176.543010	22471.693664	31167.434479	231.601227	1.000000	0.000000	0.000000	
5.401595	2349.420143	2322.782749	-150.579857	-177.217251	22674.293266	31405.954124	232.551602	0.000000	0.000000	0.000000	
5.497897	2348.761548	2322.124153	-151.238452	-177.875847	22873.069421	31639.816810	233.479948	0.000000	0.000000	0.000000	
5.598019	2348.094368	2321.456974	-151.905632	-178.543026	23075.320935	31877.612171	234.420420	0.000000	0.000000	0.000000	
5.701392	2347.420799	2320.783404	-152.579201	-179.216596	23280.412608	32118.588113	235.369923	0.000000	0.000000	0.000000	
5.797880	2346.761857	2320.124463	-153.238143	-179.875537	23481.928457	32355.208950	236.298831	0.000000	0.000000	0.000000	
5.897873	2346.094335	2319.456941	-153.905665	-180.543059	23686.953599	32595.796167	237.239857	0.000000	0.000000	0.000000	
6.001198	2345.421023	2318.783628	-154.578977	-181.216372	23894.660257	32839.373422	238.189071	0.000000	0.000000	0.000000	
6.098806	2344.762051	2318.124656	-155.237949	-181.875344	24098.820874	33078.640623	239.118091	0.000000	0.000000	0.000000	
6.198008	2344.093148	2317.455753	-155.906852	-182.544247	24306.946610	33322.402032	240.061135	0.000000	0.000000	0.000000	
6.297805	2343.428693	2316.791298	-156.571307	-183.208702	24514.574284	33565.428406	240.997931	0.000000	0.000000	0.000000	
6.398316	2342.760174	2316.122780	-157.239826	-183.877220	24724.362741	33810.832029	241.940478	0.000000	0.000000	0.000000	
6.497930	2342.094034	2315.456640	-157.905966	-184.543360	24934.294009	34056.251773	242.879694	0.000000	0.000000	0.000000	
6.601286	2341.421175	2314.783780	-158.578825	-185.216220	25147.243785	34305.047993	243.828406	0.000000	0.000000	0.000000	
6.697834	2340.761878	2314.124484	-159.238122	-185.875516	25356.779498	34549.707608	244.758017	0.000000	0.000000	0.000000	
6.801882	2340.086247	2313.448853	-159.913753	-186.551147	25572.408389	34801.330595	245.710681	0.000000	0.000000	0.000000	
6.897965	2339.428888	2312.791493	-160.571112	-187.208507	25783.082109	35047.024996	246.637603	0.000000	0.000000	0.000000	
6.997979	2338.761494	2312.124100	-161.238506	-187.875900	25997.855705	35297.353832	247.578694	0.000000	0.000000	0.000000	
7.097960	2338.095380	2311.457985	-161.904620	-188.542015	26213.106026	35548.091262	248.518002	0.000000	0.000000	0.000000	
7.201402	2337.420844	2310.783449	-162.579156	-189.216551	26431.982028	35802.903028	249.469207	0.000000	0.000000	0.000000	
7.297983	2336.762094	2310.124700	-163.237906	-189.875300	26646.613818	36052.629554	250.398170	0.000000	0.000000	0.000000	
7.397865	2336.094701	2309.457307	-163.905299	-190.542693	26864.947014	36306.517989	251.339342	0.000000	0.000000	0.000000	
7.502010	2335.418758	2308.781363	-164.581242	-191.218637	27086.985256	36564.566962	252.292592	0.000000	0.000000	0.000000	
7.598391	2334.760419	2308.123025	-165.239581	-191.876975	27304.119098	36816.773664	253.221035	0.000000	0.000000	0.000000	
7.697909	2334.095310	2307.457915	-165.904690	-192.542085	27524.366262	37072.454390	254.159046	0.000000	0.000000	0.000000	
7.801276	2333.421283	2306.783888	-166.578717	-193.216112	27748.469078	37332.465856	255.109653	0.000000	0.000000	0.000000	
7.898133	2332.760972	2306.123578	-167.239028	-193.876422	27968.892447	37588.067128	256.040933	0.000000	0.000000	0.000000	
7.997709	2332.095666	2305.458272	-167.904334	-194.541728	28191.865381	37846.484106	256.979278	0.000000	0.000000	0.000000	
8.103457	2331.421647	2304.784253	-168.578353	-195.215747	28418.660942	38109.187861	257.929930	0.000000	0.000000	0.000000	
8.197978	2330.761067	2304.123673	-169.238933	-195.876327	28641.816275	38367.535453	258.861646	0.000000	0.000000	0.000000	
8.297899	2330.093927	2303.456532	-169.906073	-196.543468	28868.073811	38629.334784	259.802634	0.000000	0.000000	0.000000	
8.401319	2329.420738	2302.783343	-170.579262	-197.216657	29097.284714	38894.409676	260.752170	0.000000	0.000000	0.000000	
8.497758	2328.762172	2302.124778	-171.237828	-197.875222	29322.393648	39154.603548	261.681098	0.000000	0.000000	0.000000	
8.601402	2328.087384	2301.449989	-171.912616	-198.550011	29553.947583	39422.106691	262.632927	0.000000	0.000000	0.000000	
8.701293	2327.421351	2300.783956	-172.578649	-199.216044	29783.390214	39687.032102	263.572423	0.000000	0.000000	0.000000	
8.797773	2326.762148	2300.124753	-173.237852	-199.875247	30011.353406	39950.114182	264.502302	0.000000	0.000000	0.000000	
8.901092	2326.087633	2299.450239	-173.912367	-200.549761	30245.511316	40220.206718	265.453796	0.000000	0.000000	0.000000	
8.997790	2325.428747	2298.791353	-174.571253	-201.208647	30475.122384	40484.919812	266.383262	0.000000	0.000000	0.000000	
9.102890	2324.744233	2298.106838	-175.255767	-201.893162	30714.584029	40760.848819	267.348897	0.000000	0.000000	0.000000	
9.197757	2324.095616	2297.458221	-175.904384	-202.541779	30942.352481	41023.172205	268.263909	0.000000	0.000000	0.000000	
9.301538	2323.420720	2296.783326	-176.579280	-203.216674	31180.242054	41297.016684	269.216008	0.000000	0.000000	0.000000	
9.397803	2322.761808	2296.124414	-177.238192	-203.875586	31413.376603	41565.254626	270.145574	0.000000	0.000000	0.000000	
9.497895	2322.094719	2295.457324	-177.905281	-204.542676	31650.289145	41837.706229	271.086693	0.000000	0.000000	0.000000	
9.601836	2321.420187	2294.782792	-178.579813	-205.217208	31890.749664	42114.102285	272.038328	0.000000	0.000000	0.000000	
9.697890	2320.762306	2294.124911	-179.237694	-205.875089	32126.151056	42384.552156	272.966487	0.000000	0.000000	0.000000	
9.797836	2320.094686	2293.457291	-179.905314	-206.542709	32365.922120	42659.890537	273.908402	0.000000	0.000000	0.000000	
9.901509	2319.420629	2292.783234	-180.579371	-207.216766	32608.909349	42938.788010	274.859414	0.000000	0.000000	0.000000	
10.001014	2318.760861	2292.123467	-181.239139	-207.876533	32847.625382	43212.653008	275.790280	0.000000	0.000000	0.000000	
10.098728	2318.095641	2291.458246	-181.904359	-208.541754	33089.195914	43489.663027	276.728855	0.000000	0.000000	0.000000	
10.201173	2317.421922	2290.784527	-182.578078	-209.215473	33334.754701	43771.114058	277.679435	0.000000	0.000000	0.000000	
10.297703	2316.762325	2290.124931	-183.237675	-209.875069	33576.045400	44047.544608	278.610104	0.000000	0.000000	0.000000	
10.397820	2316.094658	2289.457264	-183.905342	-210.542736	33821.174703	44328.243733	279.552175	0.000000	0.000000	0.000000	
10.501214	2315.421773	2288.784379	-184.578227	-211.215621	34069.121803	44612.038644	280.501623	0.000000	0.000000	0.000000	
10.597902	2314.761754	2288.124359	-185.238246	-211.875641	34313.207953	44891.287203	281.432932	0.000000	0.000000	0.000000	
10.701294	2314.087384	2287.449990	-185.912616	-212.550010	34563.500675	45177.506805	282.384503	0.000000	0.000000	0.000000	
10.798013	2313.428058	2286.790663	-186.571942	-213.209337	34809.089725	45458.221350	283.314862	0.000000	0.000000	0.000000	
10.898098	2312.761391	2286.123997	-187.238609	-213.876003	35058.296599	45742.944727	284.255592	0.000000	0.000000	0.000000	
10.997717	2312.095499	2285.458105	-187.904501	-214.541895	35308.101429	46028.224817	285.195242	0.000000	0.000000	0.000000	
11.102103	2311.416387	2284.778992	-188.583613	-215.221008	35563.779213	46320.082177	286.153563	0.000000	0.000000	0.000000	
11.196905	2310.767744	2284.130350	-189.232256	-215.869650	35808.846713	46599.705978	287.068899	0.000000	0.000000	0.000000	
11.296873	2310.102173	2283.464778	-189.897827	-216.535222	36061.184819	46887.502255	288.008137	0.000000	0.000000	0.000000	
11.400731	2309.427504	2282.790110	-190.572496	-217.209890	36317.876210	47180.136476	288.960227	0.000000	0.000000	0.000000	
11.497043	2308.768070	2282.130676	-191.231930	-217.869324	36569.650923	47467.042381	289.890830	0.000000	0.000000	0.000000	
11.596849	2308.101434	2281.464040	-191.898566	-218.535960	36825.059619	47757.965985	290.831610	0.000000	0.000000	0.000000	
11.700773	2307.427493	2280.790098	-192.572507	-219.209902	37084.170642	48052.981100	291.782713	0.000000	0.000000	0.000000	
11.797055	2306.768371	2280.130977	-193.231629	-219.869023	37338.462441	48342.387458	292.712914	0.000000	0.000000	0.000000	
11.896049	2306.106987	2279.469593	-193.893013	-220.530407	37594.500509	48633.660622	293.646320	0.000000	0.000000	0.000000	
12.000728	2305.429243	2278.791849	-194.570757	-221.208151	37857.779436	48933.046209	294.602827	0.000000	0.000000	0.000000	
12.097618	2304.769219	2278.131825	-195.230781	-221.868175	38115.057789	49225.487199	295.534338	0.000000	0.000000	0.000000	
12.196824	2304.101428	2277.464034	-195.898572	-222.535966	38376.250493	49522.256333	296.476823	0.000000	0.000000	0.000000	
12.300367	2303.427508	2276.790113	-196.572492	-223.209887	38640.744648	49822.653442	297.427971	0.000000	0.000000	0.000000	
12.396702	2302.769203	2276.131809	-197.230797	-223.868191	38899.987155	50116.966986	298.357092	0.000000	0.000000	0.000000	
12.496830	2302.101878	2275.464484	-197.898122	-224.535516	39163.666524	50416.197948	299.298955	0.000000	0.000000	0.000000	
12.600143	2301.428360	2274.790966	-198.571640	-225.209034	39430.696083	50719.109042	300.249571	0.000000	0.000000	0.000000	
12.696755	2300.769252	2274.131857	-199.230748	-225.868143	39692.891084	51016.417917	301.179862	0.000000	0.000000	0.000000	
12.800390	2300.094279	2273.456885	-199.905721	-226.543115	39962.297144	51321.782985	302.132554	0.000000	0.000000	0.000000	
12.900321	2299.427733	2272.790338	-200.572267	-227.209662	40229.234338	51624.230301	303.073365	0.000000	0.000000	0.000000	
12.996780	2298.769227	2272.131833	-201.230773	-227.868167	40493.823889	51923.901599	304.002838	0.000000	0.000000	0.000000	
13.100448	2298.095033	2271.457639	-201.904967	-228.542361	40765.615535	52231.610781	304.954466	0.000000	0.000000	0.000000	
13.200276	2297.428222	2270.790827	-202.571778	-229.209173	41035.325344	52536.844841	305.895685	0.000000	0.000000	0.000000	
13.296702	2296.769331	2270.131937	-203.230669	-229.868063	41302.704735	52839.326486	306.825734	0.000000	0.000000	0.000000	
13.400541	2296.094316	2269.456922	-203.905684	-230.543078	41577.527909	53150.110945	307.778555	0.000000	0.000000	0.000000	
13.500269	2295.428574	2268.791179	-204.571426	-231.208821	41849.468438	53457.518759	308.718297	0.000000	0.000000	0.000000	
13.596666	2294.769251	2268.131857	-205.230749	-231.868143	42119.660239	53762.835829	309.648988	0.000000	0.000000	0.000000	
13.700368	2294.094467	2267.457073	-205.905533	-232.542927	42397.088469	54076.213040	310.601516	0.000000	0.000000	0.000000	
13.800220	2293.428763	2266.791369	-206.571237	-233.208631	42671.675863	54386.265668	311.541236	0.000000	0.000000	0.000000	
13.896785	2292.769240	2266.131845	-207.230760	-233.868155	42944.588021	54694.313803	312.472242	0.000000	0.000000	0.000000	
13.999985	2292.094896	2265.457502	-207.905104	-234.542498	43224.532222	55010.183516	313.424179	0.000000	0.000000	0.000000	
14.102399	2291.428700	2264.791306	-208.571300	-235.208694	43501.987037	55323.129769	314.364624	0.000000	0.000000	0.000000	
14.196739	2290.769305	2264.131911	-209.230695	-235.868089	43777.483678	55633.755552	315.295479	0.000000	0.000000	0.000000	
14.296825	2290.101771	2263.464376	-209.898229	-236.535624	44057.266688	55949.101321	316.237835	0.000000	0.000000	0.000000	
14.400136	2289.428667	2262.791273	-210.571333	-237.208727	44340.286105	56267.980170	317.188061	0.000000	0.000000	0.000000	
14.496725	2288.769315	2262.131921	-211.230685	-237.868079	44618.402302	56581.223229	318.118886	0.000000	0.000000	0.000000	
14.600071	2288.094403	2261.457008	-211.905597	-238.542992	44903.982235	56902.758979	319.071687	0.000000	0.000000	0.000000	
14.700146	2287.428682	2260.791287	-212.571318	-239.208713	45186.565435	57220.808325	320.011521	0.000000	0.000000	0.000000	
14.797010	2286.767905	2260.130510	-213.232095	-239.869490	45467.926418	57537.372048	320.944385	0.000000	0.000000	0.000000	
14.896698	2286.102479	2259.465084	-213.897521	-240.534916	45752.149523	57857.045577	321.883822	0.000000	0.000000	0.000000	
15.009758	2285.428589	2258.791194	-214.571411	-241.208806	46040.890539	58181.687951	322.835219	0.000000	0.000000	0.000000	
15.096852	2284.768432	2258.131038	-215.231568	-241.868962	46324.627788	58500.594902	323.767235	0.000000	0.000000	0.000000	
15.200237	2284.094431	2257.457036	-215.905569	-242.542964	46615.214825	58827.089221	324.718808	0.000000	0.000000	0.000000	
15.300033	2283.428842	2256.791448	-216.571158	-243.208552	46903.066326	59150.399804	325.658512	0.000000	0.000000	0.000000	
15.396778	2282.769276	2256.131882	-217.230724	-243.868118	47189.187432	59471.659166	326.589722	0.000000	0.000000	0.000000	
15.502036	2282.075574	2255.438180	-217.924426	-244.561820	47491.055243	59810.483782	327.569136	0.000000	0.000000	0.000000	
15.596617	2281.438407	2254.801013	-218.561593	-245.198987	47769.169868	60122.543361	328.468740	0.000000	0.000000	0.000000	
15.697129	2280.768383	2254.130989	-219.231617	-245.869011	48062.501710	60451.570576	329.414742	0.000000	0.000000	0.000000	
15.796996	2280.101123	2253.463728	-219.898877	-246.536272	48355.516253	60780.133295	330.356852	0.000000	0.000000	0.000000	
