AF-MATB V. 3.03
Programmed using MATLAB 7.5.0 and other Custom MATLAB Functions.

William Daniel Miller, Jr.
Air Force Research Laboratory
711th Human Performance Wing
Human Effectiveness Directorate
Applied Neuroscience Branch

RMS Target Value is:	2500.000000	
Main Tank Automation Lower Limit is:	2350.000000	
Main Tank Automation Upper Limit is:	2650.000000	


Event Time	Tank A Value	Tank B Value	Tank A Difference	Tank B Difference	Tank A Deviation	Tank B Deviation	Euclidian Distance From Target	Tank A In Range?	Tank B In Range?	Both In Range?
0.092617	2499.603580	2499.603580	-0.396420	-0.396420	0.157149	0.157149	0.560622	1.000000	1.000000	1.000000	
0.106016	2496.599391	2496.599391	-3.400609	-3.400609	11.564145	11.564145	4.809188	1.000000	1.000000	1.000000	
0.198811	2493.433335	2493.433335	-6.566665	-6.566665	43.121084	43.121084	9.286666	1.000000	1.000000	1.000000	
0.301998	2490.069616	2490.069616	-9.930384	-9.930384	98.612533	98.612533	14.043684	1.000000	1.000000	1.000000	
0.401962	2486.735087	2486.735087	-13.264913	-13.264913	175.957920	175.957920	18.759420	1.000000	1.000000	1.000000	
0.498763	2483.433085	2483.433085	-16.566915	-16.566915	274.462666	274.462666	23.429156	1.000000	1.000000	1.000000	
0.602295	2480.061752	2480.061752	-19.938248	-19.938248	397.533722	397.533722	28.196940	1.000000	1.000000	1.000000	
0.698932	2476.765525	2476.765525	-23.234475	-23.234475	539.840846	539.840846	32.858510	1.000000	1.000000	1.000000	
0.801867	2473.399303	2473.399303	-26.600697	-26.600697	707.597092	707.597092	37.619067	1.000000	1.000000	1.000000	
0.901721	2470.068666	2470.068666	-29.931334	-29.931334	895.884746	895.884746	42.329298	1.000000	1.000000	1.000000	
0.998360	2466.773593	2466.773593	-33.226407	-33.226407	1103.994101	1103.994101	46.989235	1.000000	1.000000	1.000000	
1.102111	2463.397171	2463.397171	-36.602829	-36.602829	1339.767114	1339.767114	51.764218	1.000000	1.000000	1.000000	
1.202453	2460.061851	2460.061851	-39.938149	-39.938149	1595.055774	1595.055774	56.481072	1.000000	1.000000	1.000000	
1.298532	2456.769430	2456.769430	-43.230570	-43.230570	1868.882218	1868.882218	61.137259	1.000000	1.000000	1.000000	
1.400014	2453.421150	2453.421150	-46.578850	-46.578850	2169.589263	2169.589263	65.872441	1.000000	1.000000	1.000000	
1.501987	2450.070112	2450.070112	-49.929888	-49.929888	2492.993736	2492.993736	70.611525	1.000000	1.000000	1.000000	
1.598442	2446.772943	2446.772943	-53.227057	-53.227057	2833.119576	2833.119576	75.274426	1.000000	1.000000	1.000000	
1.706807	2443.399258	2443.399258	-56.600742	-56.600742	3203.644008	3203.644008	80.045537	1.000000	1.000000	1.000000	
1.802327	2440.064045	2440.064045	-59.935955	-59.935955	3592.318728	3592.318728	84.762241	1.000000	1.000000	1.000000	
1.898794	2436.768010	2436.768010	-63.231990	-63.231990	3998.284610	3998.284610	89.423538	1.000000	1.000000	1.000000	
2.002070	2433.400847	2433.400847	-66.599153	-66.599153	4435.447205	4435.447205	94.185426	1.000000	1.000000	1.000000	
2.115417	2430.070809	2430.070809	-69.929191	-69.929191	4890.091759	4890.091759	98.894810	1.000000	1.000000	1.000000	
2.198413	2426.774710	2426.774710	-73.225290	-73.225290	5361.943151	5361.943151	103.556199	1.000000	1.000000	1.000000	
2.298556	2423.435583	2423.435583	-76.564417	-76.564417	5862.109950	5862.109950	108.278437	1.000000	1.000000	1.000000	
2.401938	2420.069254	2420.069254	-79.930746	-79.930746	6388.924116	6388.924116	113.039145	1.000000	1.000000	1.000000	
2.498408	2416.770995	2416.770995	-83.229005	-83.229005	6927.067274	6927.067274	117.703588	1.000000	1.000000	1.000000	
2.600803	2413.440765	2413.440765	-86.559235	-86.559235	7492.501221	7492.501221	122.413245	1.000000	1.000000	1.000000	
2.702548	2410.057499	2410.057499	-89.942501	-89.942501	8089.653534	8089.653534	127.197905	1.000000	1.000000	1.000000	
2.819841	2406.770167	2406.770167	-93.229833	-93.229833	8691.801690	8691.801690	131.846894	1.000000	1.000000	1.000000	
2.898401	2403.443466	2403.443466	-96.556534	-96.556534	9323.164328	9323.164328	136.551560	1.000000	1.000000	1.000000	
3.002356	2400.062830	2400.062830	-99.937170	-99.937170	9987.437928	9987.437928	141.332501	1.000000	1.000000	1.000000	
3.098705	2396.769383	2396.769383	-103.230617	-103.230617	10656.560381	10656.560381	145.990139	1.000000	1.000000	1.000000	
3.199927	2393.424332	2393.424332	-106.575668	-106.575668	11358.372970	11358.372970	150.720755	1.000000	1.000000	1.000000	
3.302336	2390.062045	2390.062045	-109.937955	-109.937955	12086.353894	12086.353894	155.475747	1.000000	1.000000	1.000000	
3.398450	2386.770223	2386.770223	-113.229777	-113.229777	12820.982403	12820.982403	160.131086	1.000000	1.000000	1.000000	
3.498516	2383.435416	2383.435416	-116.564584	-116.564584	13587.302196	13587.302196	164.847215	1.000000	1.000000	1.000000	
3.601938	2380.067633	2380.067633	-119.932367	-119.932367	14383.772596	14383.772596	169.609980	1.000000	1.000000	1.000000	
3.698503	2376.769182	2376.769182	-123.230818	-123.230818	15185.834624	15185.834624	174.274695	1.000000	1.000000	1.000000	
3.801982	2373.400671	2373.400671	-126.599329	-126.599329	16027.389988	16027.389988	179.038487	1.000000	1.000000	1.000000	
4.004494	2370.074141	2370.074141	-129.925859	-129.925859	16880.728890	16880.728890	183.742912	1.000000	1.000000	1.000000	
4.010180	2366.440089	2366.440089	-133.559911	-133.559911	17838.249797	17838.249797	188.882237	1.000000	1.000000	1.000000	
4.100223	2368.547288	2363.429805	-131.452712	-136.570195	17279.815439	18651.418247	189.555358	1.000000	1.000000	1.000000	
4.201579	2370.894362	2365.776879	-129.105638	-134.223121	16668.265699	18015.846281	186.236710	1.000000	1.000000	1.000000	
4.298674	2373.206617	2368.089133	-126.793383	-131.910867	16076.562047	17400.476781	182.967316	1.000000	1.000000	1.000000	
4.401928	2375.567074	2370.449590	-124.432926	-129.550410	15483.553149	16783.308684	179.629791	1.000000	1.000000	1.000000	
4.501970	2377.900480	2372.782997	-122.099520	-127.217003	14908.292692	16184.165886	176.330538	1.000000	1.000000	1.000000	
4.598526	2380.205699	2375.088216	-119.794301	-124.911784	14350.674537	15602.953894	173.071166	1.000000	1.000000	1.000000	
4.702062	2382.567608	2377.450125	-117.432392	-122.549875	13790.366664	15018.471960	169.731667	1.000000	1.000000	1.000000	
4.838956	2385.810306	2380.692823	-114.189694	-119.307177	13039.286182	14234.202571	165.146870	1.000000	1.000000	1.000000	
4.898324	2387.200290	2382.082807	-112.799710	-117.917193	12723.774464	13904.464408	163.181613	1.000000	1.000000	1.000000	
4.998413	2389.540733	2384.423249	-110.459267	-115.576751	12201.249676	13357.985269	159.872558	1.000000	1.000000	1.000000	
5.102062	2391.898256	2386.780772	-108.101744	-113.219228	11685.987082	12818.593506	156.539390	1.000000	1.000000	1.000000	
5.198569	2394.207052	2389.089569	-105.792948	-110.910431	11192.147778	12301.123746	153.275150	1.000000	1.000000	1.000000	
5.302497	2396.573946	2391.456463	-103.426054	-108.543537	10696.948585	11781.699471	149.928810	1.000000	1.000000	1.000000	
5.401875	2398.898581	2393.781097	-101.101419	-106.218903	10221.496980	11282.455310	146.642260	1.000000	1.000000	1.000000	
5.498557	2401.210985	2396.093501	-98.789015	-103.906499	9759.269510	10796.560459	143.373045	1.000000	1.000000	1.000000	
5.602528	2403.570499	2398.453015	-96.429501	-101.546985	9298.648708	10311.790110	140.037277	1.000000	1.000000	1.000000	
5.699906	2405.883606	2400.766123	-94.116394	-99.233877	8857.895526	9847.362347	136.767167	1.000000	1.000000	1.000000	
5.802614	2408.234887	2403.117404	-91.765113	-96.882596	8420.835956	9386.237499	133.443147	1.000000	1.000000	1.000000	
5.898609	2410.543160	2405.425676	-89.456840	-94.574324	8002.526303	8944.302753	130.179987	1.000000	1.000000	1.000000	
6.002435	2412.903392	2407.785908	-87.096608	-92.214092	7585.819127	8503.438675	126.843438	1.000000	1.000000	1.000000	
6.100106	2415.210182	2410.092699	-84.789818	-89.907301	7189.313152	8083.322776	123.582507	1.000000	1.000000	1.000000	
6.198625	2417.540056	2412.422573	-82.459944	-87.577427	6799.642311	7669.805753	120.289019	1.000000	1.000000	1.000000	
6.301940	2419.897669	2414.780186	-80.102331	-85.219814	6416.383421	7262.416775	116.956403	1.000000	1.000000	1.000000	
6.401949	2422.233396	2417.115913	-77.766604	-82.884087	6047.644689	6869.771953	113.654814	1.000000	1.000000	1.000000	
6.498726	2424.544543	2419.427059	-75.455457	-80.572941	5693.526028	6491.998782	110.388065	1.000000	1.000000	1.000000	
6.602326	2426.900898	2421.783415	-73.099102	-78.216585	5343.478708	6117.834244	107.057522	1.000000	1.000000	1.000000	
6.702804	2429.209380	2424.091897	-70.790620	-75.908103	5011.311863	5762.040161	103.794759	1.000000	1.000000	1.000000	
6.798553	2431.541185	2426.423702	-68.458815	-73.576298	4686.609345	5413.471696	100.499159	1.000000	1.000000	1.000000	
6.901968	2433.897585	2428.780102	-66.102415	-71.219898	4369.529238	5072.273911	97.168941	1.000000	1.000000	1.000000	
7.030711	2436.953446	2431.835963	-63.046554	-68.164037	3974.867963	4646.336001	92.850439	1.000000	1.000000	1.000000	
7.098514	2438.540986	2433.423502	-61.459014	-66.576498	3777.210409	4432.430028	90.607066	1.000000	1.000000	1.000000	
7.202008	2440.900096	2435.782612	-59.099904	-64.217388	3492.798693	4123.872903	87.273545	1.000000	1.000000	1.000000	
7.298452	2443.207964	2438.090480	-56.792036	-61.909520	3225.335355	3832.788608	84.012642	1.000000	1.000000	1.000000	
7.398652	2445.545487	2440.428004	-54.454513	-59.571996	2965.293949	3548.822728	80.710078	1.000000	1.000000	1.000000	
7.502105	2447.898998	2442.781515	-52.101002	-57.218485	2714.514370	3273.955041	77.385202	1.000000	1.000000	1.000000	
7.601290	2450.206013	2445.088530	-49.793987	-54.911470	2479.441099	3015.269547	74.126315	1.000000	1.000000	1.000000	
7.701916	2452.563641	2447.446158	-47.436359	-52.553842	2250.208142	2761.906349	70.796289	1.000000	1.000000	1.000000	
7.801810	2454.897003	2449.779519	-45.102997	-50.220481	2034.280346	2522.096672	67.500941	1.000000	1.000000	1.000000	
7.898564	2457.206458	2452.088975	-42.793542	-47.911025	1831.287235	2295.466363	64.239813	1.000000	1.000000	1.000000	
8.001737	2459.565508	2454.448024	-40.434492	-45.551976	1634.948155	2074.982486	60.909200	1.000000	1.000000	1.000000	
8.105531	2461.903765	2456.786281	-38.096235	-43.213719	1451.323141	1867.425490	57.608581	1.000000	1.000000	1.000000	
8.198427	2464.207951	2459.090467	-35.792049	-40.909533	1281.070807	1673.589890	54.356791	1.000000	1.000000	1.000000	
8.298497	2466.543363	2461.425880	-33.456637	-38.574120	1119.346550	1487.962763	51.061819	1.000000	1.000000	1.000000	
8.401895	2468.898611	2463.781127	-31.101389	-36.218873	967.296419	1311.806751	47.739954	1.000000	1.000000	1.000000	
8.498689	2471.209847	2466.092364	-28.790153	-33.907636	828.872900	1149.727802	44.481465	1.000000	1.000000	1.000000	
8.602093	2473.564676	2468.447192	-26.435324	-31.552808	698.826379	995.579691	41.163164	1.000000	1.000000	1.000000	
8.699069	2475.876616	2470.759132	-24.123384	-29.240868	581.937673	855.028354	37.907335	1.000000	1.000000	1.000000	
8.801703	2478.233435	2473.115951	-21.766565	-26.884049	473.783353	722.752066	34.590973	1.000000	1.000000	1.000000	
8.898647	2480.543115	2475.425631	-19.456885	-24.574369	378.570388	603.899605	31.344377	1.000000	1.000000	1.000000	
9.001603	2482.895892	2477.778409	-17.104108	-22.221591	292.550505	493.799122	28.041926	1.000000	1.000000	1.000000	
9.098357	2485.205242	2480.087759	-14.794758	-19.912241	218.884850	396.497343	24.806898	1.000000	1.000000	1.000000	
9.201838	2487.566553	2482.449069	-12.433447	-17.550931	154.590611	308.035171	21.508737	1.000000	1.000000	1.000000	
9.301723	2489.898897	2484.781413	-10.101103	-15.218587	102.032290	231.605388	18.265752	1.000000	1.000000	1.000000	
9.398267	2492.200867	2487.083383	-7.799133	-12.916617	60.826478	166.838986	15.088587	1.000000	1.000000	1.000000	
9.501672	2494.565770	2489.448286	-5.434230	-10.551714	29.530858	111.338662	11.868847	1.000000	1.000000	1.000000	
9.601437	2496.892605	2491.775121	-3.107395	-8.224879	9.655905	67.648630	8.792300	1.000000	1.000000	1.000000	
9.702849	2499.229784	2494.112300	-0.770216	-5.887700	0.593233	34.665007	5.937865	1.000000	1.000000	1.000000	
9.798292	2501.537398	2496.419914	1.537398	-3.580086	2.363592	12.817014	3.896230	1.000000	1.000000	1.000000	
9.901684	2503.895280	2498.777796	3.895280	-1.222204	15.173205	1.493782	4.082522	1.000000	1.000000	1.000000	
9.998209	2506.202774	2501.085290	6.202774	1.085290	38.474405	1.177855	6.297004	1.000000	1.000000	1.000000	
10.104097	2508.564743	2503.447259	8.564743	3.447259	73.354821	11.883597	9.232465	1.000000	1.000000	1.000000	
10.201755	2510.895320	2505.777837	10.895320	5.777837	118.708005	33.383398	12.332534	1.000000	1.000000	1.000000	
10.298309	2513.203323	2508.085840	13.203323	8.085840	174.327748	65.380806	15.482524	1.000000	1.000000	1.000000	
10.400770	2515.539065	2510.421582	15.539065	10.421582	241.462551	108.609368	18.710209	1.000000	1.000000	1.000000	
10.501743	2517.896783	2512.779299	17.896783	12.779299	320.294837	163.310492	21.991028	1.000000	1.000000	1.000000	
10.598323	2520.204292	2515.086808	20.204292	15.086808	408.213411	227.611788	25.215575	1.000000	1.000000	1.000000	
10.701915	2522.566066	2517.448583	22.566066	17.448583	509.227345	304.453039	28.525083	1.000000	1.000000	1.000000	
10.801919	2524.896404	2519.778921	24.896404	19.778921	619.830938	391.205700	31.796802	1.000000	1.000000	1.000000	
10.898712	2527.208329	2522.090846	27.208329	22.090846	740.293180	488.005465	35.047092	1.000000	1.000000	1.000000	
11.002145	2529.565987	2524.448503	29.565987	24.448503	874.147581	597.729318	38.365048	1.000000	1.000000	1.000000	
11.103077	2531.899828	2526.782344	31.899828	26.782344	1017.599007	717.293960	41.652046	1.000000	1.000000	1.000000	
11.197247	2534.182996	2529.065512	34.182996	29.065512	1168.477213	844.804014	44.869602	1.000000	1.000000	1.000000	
11.319402	2536.537360	2531.419877	36.537360	31.419877	1334.978696	987.208656	48.189079	1.000000	1.000000	1.000000	
11.398171	2538.868267	2533.750784	38.868267	33.750784	1510.742181	1139.115387	51.476767	1.000000	1.000000	1.000000	
11.501955	2541.233948	2536.116465	41.233948	36.116465	1700.238504	1304.399039	54.814574	1.000000	1.000000	1.000000	
11.598309	2543.537041	2538.419558	43.537041	38.419558	1895.473976	1476.062430	58.064933	1.000000	1.000000	1.000000	
11.701911	2545.899489	2540.782006	45.899489	40.782006	2106.763126	1663.172003	61.399797	1.000000	1.000000	1.000000	
11.799599	2548.207477	2543.089994	48.207477	43.089994	2323.960884	1856.747579	64.658398	1.000000	1.000000	1.000000	
11.898122	2550.534193	2545.416709	50.534193	45.416709	2553.704630	2062.677472	67.943963	1.000000	1.000000	1.000000	
12.001817	2552.899036	2547.781552	52.899036	47.781552	2798.307989	2283.076739	71.283832	1.000000	1.000000	1.000000	
12.099629	2555.202877	2550.085394	55.202877	50.085394	3047.357659	2508.546668	74.537939	1.000000	1.000000	1.000000	
12.198372	2557.539008	2552.421525	57.539008	52.421525	3310.737493	2748.016276	77.837997	1.000000	1.000000	1.000000	
12.301587	2559.893642	2554.776159	59.893642	54.776159	3587.248377	3000.427561	81.164499	1.000000	1.000000	1.000000	
12.397101	2562.176766	2557.059282	62.176766	57.059282	3865.950176	3255.761669	84.390235	1.000000	1.000000	1.000000	
12.501826	2564.566743	2559.449259	64.566743	59.449259	4168.864284	3534.214437	87.767185	1.000000	1.000000	1.000000	
12.634985	2566.871647	2561.754164	66.871647	61.754164	4471.817197	3813.576731	91.024139	1.000000	1.000000	1.000000	
12.698981	2569.208003	2564.090519	69.208003	64.090519	4789.747666	4107.594676	94.325725	1.000000	1.000000	1.000000	
12.814023	2571.568520	2566.451036	71.568520	66.451036	5122.053022	4415.740220	97.661626	1.000000	1.000000	1.000000	
12.898381	2573.870849	2568.753366	73.870849	68.753366	5456.902376	4727.025307	100.915448	1.000000	1.000000	1.000000	
13.004092	2576.233237	2571.115754	76.233237	71.115754	5811.506481	5057.450448	104.254290	1.000000	1.000000	1.000000	
13.098539	2578.536405	2573.418922	78.536405	73.418922	6167.966943	5390.338063	107.509558	1.000000	1.000000	1.000000	
13.201817	2580.898464	2575.780980	80.898464	75.780980	6544.561470	5742.756997	110.848178	1.000000	1.000000	1.000000	
13.298665	2583.206751	2578.089268	83.206751	78.089268	6923.363484	6097.933765	114.110899	1.000000	1.000000	1.000000	
13.402178	2585.565517	2580.448033	85.565517	80.448033	7321.457672	6471.886067	117.445067	1.000000	1.000000	1.000000	
13.521801	2587.869733	2582.752249	87.869733	82.752249	7721.089899	6847.934721	120.702215	1.000000	1.000000	1.000000	
13.601022	2590.206837	2585.089353	90.206837	85.089353	8137.273398	7240.198036	124.005933	1.000000	1.000000	1.000000	
13.698435	2592.539360	2587.421877	92.539360	87.421877	8563.533192	7642.584529	127.303251	1.000000	1.000000	1.000000	
13.801756	2594.898230	2589.780747	94.898230	89.780747	9005.674138	8060.582517	130.637884	1.000000	1.000000	1.000000	
13.898158	2597.202581	2592.085097	97.202581	92.085097	9448.341727	8479.665155	133.895507	1.000000	1.000000	1.000000	
14.001572	2599.565702	2594.448219	99.565702	94.448219	9913.329108	8920.466064	137.236275	1.000000	1.000000	1.000000	
14.104277	2601.895906	2596.778422	101.895906	96.778422	10382.775584	9366.062988	140.530561	1.000000	1.000000	1.000000	
14.198666	2604.209912	2599.092428	104.209912	99.092428	10859.705664	9819.309293	143.801999	1.000000	1.000000	1.000000	
14.298926	2606.545160	2601.427676	106.545160	101.427676	11351.871014	10287.573458	147.103516	1.000000	1.000000	1.000000	
14.401885	2608.897997	2603.780513	108.897997	103.780513	11858.773729	10770.394959	150.429946	1.000000	1.000000	1.000000	
14.503252	2611.325548	2606.208065	111.325548	106.208065	12393.377686	11280.153009	153.862051	1.000000	1.000000	1.000000	
14.598906	2613.540425	2608.422941	113.540425	108.422941	12891.428014	11755.534150	156.993510	1.000000	1.000000	1.000000	
14.701850	2615.898292	2610.780808	115.898292	110.780808	13432.414043	12272.387486	160.327170	1.000000	1.000000	1.000000	
14.798254	2618.202642	2613.085159	118.202642	113.085159	13971.864633	12788.253125	163.585200	1.000000	1.000000	1.000000	
14.901678	2620.564491	2615.447008	120.564491	115.447008	14535.796590	13328.011634	166.924558	1.000000	1.000000	1.000000	
15.001805	2622.894680	2617.777196	122.894680	117.777196	15103.102276	13871.467920	170.219183	1.000000	1.000000	1.000000	
15.097285	2625.179584	2620.062101	125.179584	120.062101	15669.928342	14414.908062	173.449809	1.000000	1.000000	1.000000	
15.197290	2627.514802	2622.397319	127.514802	122.397319	16260.024829	14981.103669	176.751601	1.000000	1.000000	1.000000	
15.300566	2629.874002	2624.756518	129.874002	124.756518	16867.256375	15564.188885	180.087327	1.000000	1.000000	1.000000	
15.397176	2632.179176	2627.061692	132.179176	127.061692	17471.334487	16144.673620	183.346688	1.000000	1.000000	1.000000	
15.500489	2634.538794	2629.421311	134.538794	129.421311	18100.687192	16749.875706	186.683055	1.000000	1.000000	1.000000	
15.601077	2636.877081	2631.759598	136.877081	131.759598	18735.335356	17360.591581	189.989281	1.000000	1.000000	1.000000	
15.697277	2639.180968	2634.063484	139.180968	134.063484	19371.341734	17973.017758	193.246887	1.000000	1.000000	1.000000	
15.800488	2641.537128	2636.419645	141.537128	136.419645	20032.758672	18610.319469	196.578427	1.000000	1.000000	1.000000	
15.900568	2643.869263	2638.751779	143.869263	138.751779	20698.364693	19252.056173	199.876014	1.000000	1.000000	1.000000	
15.997237	2646.179182	2641.061698	146.179182	141.061698	21368.353157	19898.402691	203.142206	1.000000	1.000000	1.000000	
16.103831	2648.541285	2643.423802	148.541285	143.423802	22064.513450	20570.386931	206.482204	1.000000	1.000000	1.000000	
16.197216	2650.845785	2645.728302	150.845785	145.728302	22754.450996	21236.737993	209.740766	0.000000	1.000000	0.000000	
16.300648	2653.204716	2648.087232	153.204716	148.087232	23471.684867	21929.828293	213.076308	0.000000	1.000000	0.000000	
