AF-MATB V. 3.03
Programmed using MATLAB 7.5.0 and other Custom MATLAB Functions.

William Daniel Miller, Jr.
Air Force Research Laboratory
711th Human Performance Wing
Human Effectiveness Directorate
Applied Neuroscience Branch

RMS Center Coordinate (X,Y) is:	599.500000	565.500000	
Tracking Box X-Axis Lower Limit is:	449.500000	
Tracking Box X-Axis Upper Limit is:	749.500000	
Tracking Box Y-Axis Lower Limit is:	417.500000	
Tracking Box Y-Axis Upper Limit is:	717.500000	


Event Time	X Coordinates	Y Coordinates	X-Axis Difference	Y-Axis Difference	X-Axis Deviation	Y-Axis Deviation	Euclidian Distance From Target	X-Axis In Range?	y-Axis In Range?	Both In Range?
0.097328	593.852409	561.295995	-5.647591	-4.204005	31.895280	17.673654	7.040521	1.000000	1.000000	1.000000	
0.106052	588.246419	557.091991	-11.253581	-8.408009	126.643091	70.694617	14.047694	1.000000	1.000000	1.000000	
0.198864	582.517708	552.885906	-16.982292	-12.614094	288.398238	159.115358	21.154517	1.000000	1.000000	1.000000	
0.302092	576.911717	548.679822	-22.588283	-16.820178	510.230507	282.918393	28.162899	1.000000	1.000000	1.000000	
0.402057	571.264127	544.475817	-28.235873	-21.024183	797.264532	442.016258	35.203420	1.000000	1.000000	1.000000	
0.498813	565.658136	540.269733	-33.841864	-25.230267	1145.271744	636.566385	42.211825	1.000000	1.000000	1.000000	
0.602389	560.010546	536.063648	-39.489454	-29.436352	1559.417009	866.498806	49.253587	1.000000	1.000000	1.000000	
0.698979	554.567188	538.403196	-44.932812	-27.096804	2018.957626	734.236776	52.470891	1.000000	1.000000	1.000000	
0.801975	549.082230	540.744824	-50.417770	-24.755176	2541.951562	612.818730	56.167342	1.000000	1.000000	1.000000	
0.901815	543.638872	543.086452	-55.861128	-22.413548	3120.465648	502.367128	60.189972	1.000000	1.000000	1.000000	
0.998397	538.276634	550.182960	-61.223366	-15.317040	3748.300567	234.611711	63.110318	1.000000	1.000000	1.000000	
1.102280	553.223516	561.747308	-46.276484	-3.752692	2141.512984	14.082697	46.428393	1.000000	1.000000	1.000000	
1.202549	568.170398	571.158856	-31.329602	5.658856	981.543966	32.022652	31.836561	1.000000	1.000000	1.000000	
1.298570	579.161120	577.564804	-20.338880	12.064804	413.670041	145.559496	23.648035	1.000000	1.000000	1.000000	
1.400079	575.795682	580.434752	-23.704318	14.934752	561.894690	223.046817	28.016808	1.000000	1.000000	1.000000	
1.502082	563.767044	582.776380	-35.732956	17.276380	1276.844138	298.473305	39.690269	1.000000	1.000000	1.000000	
1.598481	552.021286	584.546008	-47.478714	19.046008	2254.228269	362.750418	51.156414	1.000000	1.000000	1.000000	
1.706881	544.502088	586.192916	-54.997912	20.692916	3024.770302	428.196769	58.761953	1.000000	1.000000	1.000000	
1.802422	537.507468	580.680366	-61.992532	15.180366	3843.073999	230.443503	63.824114	1.000000	1.000000	1.000000	
1.898851	531.898128	575.086695	-67.601872	9.586695	4570.013072	91.904731	68.278238	1.000000	1.000000	1.000000	
2.002167	536.890548	569.574145	-62.609452	4.074145	3919.943456	16.598660	62.741869	1.000000	1.000000	1.000000	
2.115512	550.937208	563.083995	-48.562792	-2.416005	2358.344748	5.837080	48.622853	1.000000	1.000000	1.000000	
2.198451	564.819548	556.471125	-34.680452	-9.028875	1202.733738	81.520586	35.836494	1.000000	1.000000	1.000000	
2.298594	578.620768	549.980975	-20.879232	-15.519025	435.942321	240.840147	26.015043	1.000000	1.000000	1.000000	
2.402039	591.198948	543.164264	-8.301052	-22.335736	68.907461	498.885081	23.828398	1.000000	1.000000	1.000000	
2.498448	592.603368	536.347554	-6.896632	-29.152446	47.563530	849.865092	29.957113	1.000000	1.000000	1.000000	
2.600855	583.803104	536.886984	-15.696896	-28.613016	246.392549	818.704667	32.635827	1.000000	1.000000	1.000000	
2.702643	575.408440	537.671854	-24.091560	-27.828146	580.403287	774.405691	36.807730	1.000000	1.000000	1.000000	
2.819878	567.379855	538.456724	-32.120145	-27.043276	1031.703704	731.338757	41.988599	1.000000	1.000000	1.000000	
2.898447	559.473991	539.241594	-40.026009	-26.258406	1602.081411	689.503865	47.870505	1.000000	1.000000	1.000000	
3.002459	553.200926	541.043584	-46.299074	-24.456416	2143.604208	598.116263	52.361441	1.000000	1.000000	1.000000	
3.098750	549.619382	547.475654	-49.880618	-18.024346	2488.076037	324.877033	53.037280	1.000000	1.000000	1.000000	
3.199986	562.501800	550.449763	-36.998200	-15.050237	1368.866767	226.509631	39.942163	1.000000	1.000000	1.000000	
3.302434	579.298779	553.222112	-20.201221	-12.277888	408.089337	150.746541	23.639710	1.000000	1.000000	1.000000	
3.398489	596.260077	553.271740	-3.239923	-12.228260	10.497100	149.530334	12.650195	1.000000	1.000000	1.000000	
3.498556	610.407136	549.462969	10.907136	-16.037031	118.965605	257.186364	19.394638	1.000000	1.000000	1.000000	
3.602038	618.559634	544.637078	19.059634	-20.862922	363.269643	435.261530	28.258294	1.000000	1.000000	1.000000	
3.698543	624.305572	539.811186	24.805572	-25.688814	615.316413	659.915152	35.710385	1.000000	1.000000	1.000000	
3.802124	630.213751	534.985295	30.713751	-30.514705	943.334473	931.147228	43.295285	1.000000	1.000000	1.000000	
4.004540	639.140009	530.159404	39.640009	-35.340596	1571.330306	1248.957760	53.106384	1.000000	1.000000	1.000000	
4.010217	648.066267	525.333512	48.566267	-40.166488	2358.682314	1613.346746	63.024036	1.000000	1.000000	1.000000	
4.100266	663.355246	520.466021	63.855246	-45.033979	4077.492389	2028.059284	78.138030	1.000000	1.000000	1.000000	
4.201676	679.417984	515.271969	79.917984	-50.228031	6386.884156	2522.855056	94.391415	1.000000	1.000000	1.000000	
4.298714	685.623655	515.697389	86.123655	-49.802611	7417.283949	2480.300096	99.486602	1.000000	1.000000	1.000000	
4.402031	691.748206	516.122808	92.248206	-49.377192	8509.731519	2438.107099	104.631920	1.000000	1.000000	1.000000	
4.502071	697.831157	516.427587	98.331157	-49.072413	9669.016457	2408.101703	109.895942	1.000000	1.000000	1.000000	
4.598582	702.406108	516.732366	102.906108	-48.767634	10589.667097	2378.282088	113.876904	1.000000	1.000000	1.000000	
4.702223	702.209539	519.112986	102.709539	-46.387014	10549.249446	2151.755102	112.698734	1.000000	1.000000	1.000000	
4.839002	701.359850	522.061445	101.859850	-43.438555	10375.429098	1886.908072	110.735438	1.000000	1.000000	1.000000	
4.898365	700.470641	525.009904	100.970641	-40.490096	10195.070411	1639.447865	108.786572	1.000000	1.000000	1.000000	
4.998454	699.662552	527.958363	100.162552	-37.541637	10032.536901	1409.374482	106.966870	1.000000	1.000000	1.000000	
5.102558	698.812863	530.906823	99.312863	-34.593177	9863.044846	1196.687923	105.165264	1.000000	1.000000	1.000000	
5.198610	701.117320	527.765543	101.617320	-37.734457	10326.079637	1423.889254	108.397273	1.000000	1.000000	1.000000	
5.302599	703.463376	524.258183	103.963376	-41.241817	10808.383487	1700.887456	111.844852	1.000000	1.000000	1.000000	
5.401976	702.464792	519.003623	102.964792	-46.496377	10601.748356	2161.913033	112.976375	1.000000	1.000000	1.000000	
5.498598	700.650848	513.503624	101.150848	-51.996376	10231.494043	2703.623145	113.732657	1.000000	1.000000	1.000000	
5.602630	698.836904	507.839304	99.336904	-57.660696	9867.820513	3324.755862	114.858941	1.000000	1.000000	1.000000	
5.699968	697.064560	502.135464	97.564560	-63.364536	9518.843410	4015.064385	116.335325	1.000000	1.000000	1.000000	
5.802716	704.477128	503.819249	104.977128	-61.680751	11020.197507	3804.515103	121.756776	1.000000	1.000000	1.000000	
5.898650	710.543937	508.712473	111.043937	-56.787527	12330.755896	3224.823252	124.722007	1.000000	1.000000	1.000000	
6.002537	714.212505	515.067937	114.712505	-50.432063	13158.958818	2543.392981	125.309025	1.000000	1.000000	1.000000	
6.100152	717.881073	521.423401	118.381073	-44.076599	14014.078527	1942.746562	126.320327	1.000000	1.000000	1.000000	
6.198666	723.744042	527.778865	124.244042	-37.721135	15436.581881	1422.883994	129.844006	1.000000	1.000000	1.000000	
6.302041	730.260130	534.134330	130.760130	-31.365670	17098.211575	983.805277	134.469390	1.000000	1.000000	1.000000	
6.402051	736.776218	540.489794	137.276218	-25.010206	18844.760082	625.510411	139.535911	1.000000	1.000000	1.000000	
6.498783	742.843026	546.479178	143.343026	-19.020822	20547.223240	361.791666	144.599498	1.000000	1.000000	1.000000	
6.602428	748.909835	551.453522	149.409835	-14.046478	22323.298724	197.303535	150.068658	1.000000	1.000000	1.000000	
6.702860	752.272435	550.037584	152.772435	-15.462416	23339.416996	239.086318	153.552933	0.000000	1.000000	0.000000	
6.798594	755.635036	548.621645	156.135036	-16.878355	24378.149433	284.878865	157.044670	0.000000	1.000000	0.000000	
6.902071	758.997636	547.205706	159.497636	-18.294294	25439.496036	334.681176	160.543381	0.000000	1.000000	0.000000	
7.030765	762.360237	545.748168	162.860237	-19.751832	26523.456803	390.134874	164.053624	0.000000	1.000000	0.000000	
7.098556	765.722838	544.332229	166.222838	-21.167771	27630.031736	448.074520	167.565230	0.000000	1.000000	0.000000	
7.202111	769.085438	542.916291	169.585438	-22.583709	28759.220834	510.023931	171.082567	0.000000	1.000000	0.000000	
7.298493	772.121479	541.500352	172.621479	-23.999648	29798.174915	575.983106	174.281835	0.000000	1.000000	0.000000	
7.398695	772.476399	542.441053	172.976399	-23.058947	29920.834709	531.715021	174.506589	0.000000	1.000000	0.000000	
7.502207	774.071757	555.158564	174.571757	-10.341436	30475.298477	106.945288	174.877797	0.000000	1.000000	0.000000	
7.601328	774.244395	569.987276	174.744395	4.487276	30535.603754	20.135643	174.802001	0.000000	1.000000	0.000000	
7.702063	774.254794	586.523667	174.754794	21.023667	30539.237882	441.994565	176.014864	0.000000	1.000000	0.000000	
7.801913	773.736872	605.903418	174.236872	40.403418	30358.487456	1632.436180	178.860067	0.000000	1.000000	0.000000	
7.898611	773.218950	625.811489	173.718950	60.311489	30178.273517	3637.475714	183.890590	0.000000	1.000000	0.000000	
8.001841	772.701028	645.393000	173.201028	79.893000	29998.596063	6382.891485	190.739318	0.000000	1.000000	0.000000	
8.105633	769.868066	656.931151	170.368066	91.431151	29025.277911	8359.655441	193.351838	0.000000	1.000000	0.000000	
8.198468	765.938944	657.486903	166.438944	91.986903	27701.922112	8461.590235	190.167064	0.000000	1.000000	0.000000	
8.298539	765.054942	650.538014	165.554942	85.038014	27408.438886	7231.463768	186.117980	0.000000	1.000000	0.000000	
8.401999	765.188060	643.262565	165.688060	77.762565	27452.533326	6047.016486	183.028822	0.000000	1.000000	0.000000	
8.498750	765.240058	637.782156	165.740058	72.282156	27469.766959	5224.710070	180.816142	0.000000	1.000000	0.000000	
8.602171	767.064349	631.330062	167.564349	65.830062	28077.811175	4333.597123	180.031687	0.000000	1.000000	0.000000	
8.699114	769.173600	625.000689	169.673600	59.500689	28789.130643	3540.331987	179.803956	0.000000	1.000000	0.000000	
8.801808	771.363971	620.955155	171.863971	55.455155	29537.224620	3075.274267	180.589310	0.000000	1.000000	0.000000	
8.898694	773.512742	621.028022	174.012742	55.528022	30280.434457	3083.361223	182.657591	0.000000	1.000000	0.000000	
9.001708	775.742633	623.467928	176.242633	57.967928	31061.465750	3360.280730	185.530985	0.000000	1.000000	0.000000	
9.098399	777.933004	625.907835	178.433004	60.407835	31838.336965	3649.106525	188.381112	0.000000	1.000000	0.000000	
9.202019	780.162895	628.347741	180.662895	62.847741	32639.081663	3949.838607	191.282305	0.000000	1.000000	0.000000	
9.301830	785.034386	629.807968	185.534386	64.307968	34423.008406	4135.514744	196.363243	0.000000	1.000000	0.000000	
9.398309	779.280665	634.087015	179.780665	68.587015	32321.087557	4704.178673	192.419506	0.000000	1.000000	0.000000	
9.501777	773.485344	638.366063	173.985344	72.866063	30270.900005	5309.463094	188.627578	0.000000	1.000000	0.000000	
9.601542	767.608903	642.645110	168.108903	77.145110	28260.603374	5951.368008	184.964784	0.000000	1.000000	0.000000	
9.702950	760.759022	646.924157	161.259022	81.424157	26004.472306	6629.893415	180.649843	0.000000	1.000000	0.000000	
9.798333	751.390261	651.120005	151.890261	85.620005	23070.651536	7330.785223	174.360078	0.000000	1.000000	0.000000	
9.901791	740.598781	652.992492	141.098781	87.492492	19908.865881	7654.936187	166.023499	1.000000	1.000000	1.000000	
9.998252	729.116740	651.193780	129.616740	85.693780	16800.499202	7343.423853	155.383149	1.000000	1.000000	1.000000	
10.104182	716.457419	646.499707	116.957419	80.999707	13679.037802	6560.952520	142.267320	1.000000	1.000000	1.000000	
10.201860	703.716978	641.805634	104.216978	76.305634	10861.178471	5822.549823	129.165507	1.000000	1.000000	1.000000	
10.298351	688.889852	626.301095	89.389852	60.801095	7990.545622	3696.773147	108.107903	1.000000	1.000000	1.000000	
10.400875	673.858886	609.082636	74.358886	43.582636	5529.243920	1899.446127	86.189849	1.000000	1.000000	1.000000	
10.501850	673.900486	608.105036	74.400486	42.605036	5535.432310	1815.189060	85.735765	1.000000	1.000000	1.000000	
10.598366	658.952720	589.418096	59.452720	23.918096	3534.625916	572.075330	64.083549	1.000000	1.000000	1.000000	
10.702108	644.004954	570.895477	44.504954	5.395477	1980.690935	29.111172	44.830816	1.000000	1.000000	1.000000	
10.802033	628.568388	558.121978	29.068388	-7.378022	844.971187	54.435214	29.990105	1.000000	1.000000	1.000000	
10.898776	613.294062	549.385758	13.794062	-16.114242	190.276151	259.668786	21.211906	1.000000	1.000000	1.000000	
11.002229	603.789656	541.710339	4.289656	-23.789661	18.401150	565.947973	24.173314	1.000000	1.000000	1.000000	
11.103188	596.804130	534.034920	-2.695870	-31.465080	7.267714	990.051283	31.580358	1.000000	1.000000	1.000000	
11.197289	590.668093	535.987999	-8.831907	-29.512001	78.002578	870.958223	30.805207	1.000000	1.000000	1.000000	
11.319442	598.296108	537.355951	-1.203892	-28.144049	1.449356	792.087519	28.169787	1.000000	1.000000	1.000000	
11.398213	599.788086	540.676982	0.288086	-24.823018	0.082994	616.182247	24.824690	1.000000	1.000000	1.000000	
11.502060	601.321664	543.998012	1.821664	-21.501988	3.318459	462.335469	21.579016	1.000000	1.000000	1.000000	
11.598352	602.813642	547.645603	3.313642	-17.854397	10.980222	318.779478	18.159287	1.000000	1.000000	1.000000	
11.702017	604.347220	551.374314	4.847220	-14.125686	23.495539	199.534996	14.934207	1.000000	1.000000	1.000000	
11.799656	605.880798	555.021905	6.380798	-10.478095	40.714578	109.790469	12.268050	1.000000	1.000000	1.000000	
11.898163	607.414375	558.669496	7.914375	-6.830504	62.637339	46.655782	10.454335	1.000000	1.000000	1.000000	
12.001922	608.906353	562.356607	9.406353	-3.143393	88.479484	9.880919	9.917681	1.000000	1.000000	1.000000	
12.099677	610.398331	566.043718	10.898331	0.543718	118.773625	0.295629	10.911886	1.000000	1.000000	1.000000	
12.198415	611.890309	569.730829	12.390309	4.230829	153.519761	17.899914	13.092734	1.000000	1.000000	1.000000	
12.301693	603.874194	564.113360	4.374194	-1.386640	19.133572	1.922770	4.588719	1.000000	1.000000	1.000000	
12.397144	595.695839	558.456372	-3.804161	-7.043628	14.471643	49.612702	8.005270	1.000000	1.000000	1.000000	
12.501930	594.069279	553.888692	-5.430721	-11.611308	29.492734	134.822484	12.818550	1.000000	1.000000	1.000000	
12.635024	578.862603	540.238263	-20.637397	-25.261737	425.902138	638.155365	32.619894	1.000000	1.000000	1.000000	
12.699021	578.172043	539.911703	-21.327957	-25.588297	454.881732	654.760952	33.311300	1.000000	1.000000	1.000000	
12.814125	562.355928	525.242074	-37.144072	-40.257926	1379.682072	1620.700598	54.775749	1.000000	1.000000	1.000000	
12.898426	551.535973	510.530845	-47.964027	-54.969155	2300.547894	3021.607962	72.953107	1.000000	1.000000	1.000000	
13.004195	544.412178	495.819617	-55.087822	-69.680383	3034.668169	4855.355828	88.825807	1.000000	1.000000	1.000000	
13.098583	537.704265	481.454369	-61.795735	-84.045631	3818.712826	7063.668109	104.318651	1.000000	1.000000	1.000000	
13.201922	530.996353	467.661121	-68.503647	-97.838879	4692.749660	9572.446214	119.436995	1.000000	1.000000	1.000000	
13.298730	524.246841	454.602113	-75.253159	-110.897887	5663.038002	12298.341248	134.020070	1.000000	1.000000	1.000000	
13.402284	517.497328	441.746946	-82.002672	-123.753054	6724.438179	15314.818452	148.456245	1.000000	1.000000	1.000000	
13.521842	510.789416	431.703938	-88.710584	-133.796062	7869.567738	17901.386219	160.533342	1.000000	1.000000	1.000000	
13.601068	504.039904	426.066370	-95.460096	-139.433630	9112.630024	19441.737114	168.980375	1.000000	1.000000	1.000000	
13.698478	496.346863	424.618128	-103.153137	-140.881872	10640.569644	19847.701952	174.608910	1.000000	1.000000	1.000000	
13.801863	491.224703	426.662205	-108.275297	-138.837795	11723.539988	19275.933289	176.066673	1.000000	1.000000	1.000000	
13.898202	486.917902	431.225163	-112.582098	-134.274837	12674.728696	18029.731970	175.226883	1.000000	1.000000	1.000000	
14.001652	483.507582	438.307000	-115.992418	-127.193000	13454.241020	16178.059247	172.140350	1.000000	1.000000	1.000000	
14.104384	480.831502	447.096517	-118.668498	-118.403483	14082.212489	14019.384679	167.635310	1.000000	1.000000	1.000000	
14.198729	478.400861	455.967155	-121.099139	-109.532845	14665.001384	11997.444156	163.286391	1.000000	1.000000	1.000000	
14.298975	476.132461	464.877312	-123.367539	-100.622688	15219.549684	10124.925271	159.199482	1.000000	1.000000	1.000000	
14.401991	486.405440	480.355273	-113.094560	-85.144727	12790.379521	7249.624596	141.562721	1.000000	1.000000	1.000000	
14.503293	503.650579	495.019953	-95.849421	-70.480047	9187.111536	4967.437032	118.972890	1.000000	1.000000	1.000000	
14.598952	506.832979	494.572753	-92.667021	-70.927247	8587.176810	5030.674374	116.695549	1.000000	1.000000	1.000000	
14.701957	527.096198	508.709113	-72.403802	-56.790887	5242.310576	3225.204818	92.019103	1.000000	1.000000	1.000000	
14.798297	544.913337	522.683234	-54.586663	-42.816766	2979.703809	1833.275489	69.375639	1.000000	1.000000	1.000000	
14.901787	560.731596	535.032874	-38.768404	-30.467126	1502.989176	928.245776	49.307555	1.000000	1.000000	1.000000	
15.001911	577.391777	544.507133	-22.108223	-20.992867	488.773542	440.700459	30.487276	1.000000	1.000000	1.000000	
15.097333	591.971958	552.804112	-7.528042	-12.695888	56.671423	161.185561	14.759979	1.000000	1.000000	1.000000	
15.197334	603.371818	560.938852	3.871818	-4.561148	14.990978	20.804073	5.982897	1.000000	1.000000	1.000000	
15.300675	612.772799	569.154711	13.272799	3.654711	176.167205	13.356913	13.766776	1.000000	1.000000	1.000000	
15.397221	621.562260	577.370570	22.062260	11.870570	486.743334	140.910440	25.053019	1.000000	1.000000	1.000000	
15.500597	630.393321	585.505310	30.893321	20.005310	954.397303	400.212414	36.805023	1.000000	1.000000	1.000000	
15.601185	639.224382	593.640049	39.724382	28.140049	1578.026548	791.862354	48.681505	1.000000	1.000000	1.000000	
15.697322	647.851603	601.774788	48.351603	36.274788	2337.877536	1315.860262	60.446156	1.000000	1.000000	1.000000	
15.800595	654.234504	606.535768	54.734504	41.035768	2995.865949	1683.934217	68.409065	1.000000	1.000000	1.000000	
15.900674	660.494685	608.359787	60.994685	42.859787	3720.351615	1836.961328	74.547387	1.000000	1.000000	1.000000	
15.997282	666.266066	609.407966	66.766066	43.907966	4457.707581	1927.909490	79.910056	1.000000	1.000000	1.000000	
16.103938	664.815220	598.138841	65.315220	32.638841	4266.077975	1065.293928	73.016244	1.000000	1.000000	1.000000	
16.200560	663.364374	586.952915	63.864374	21.452915	4078.658278	460.227581	67.371254	1.000000	1.000000	1.000000	
16.300788	661.955128	576.744590	62.455128	11.244590	3900.643024	126.440807	63.459308	1.000000	1.000000	1.000000	
16.397258	660.260922	566.536265	60.760922	1.036265	3691.889653	1.073845	60.769758	1.000000	1.000000	1.000000	
16.500820	657.223036	554.901059	57.723036	-10.598941	3331.948895	112.337541	58.688043	1.000000	1.000000	1.000000	
16.597311	651.073871	542.436809	51.573871	-23.063191	2659.864201	531.910773	56.495796	1.000000	1.000000	1.000000	
