AF-MATB V. 3.03
Programmed using MATLAB 7.5.0 and other Custom MATLAB Functions.

William Daniel Miller, Jr.
Air Force Research Laboratory
711th Human Performance Wing
Human Effectiveness Directorate
Applied Neuroscience Branch

RMS Target Value is:	2500.000000	
Main Tank Automation Lower Limit is:	2350.000000	
Main Tank Automation Upper Limit is:	2650.000000	


Event Time	Tank A Value	Tank B Value	Tank A Difference	Tank B Difference	Tank A Deviation	Tank B Deviation	Euclidian Distance From Target	Tank A In Range?	Tank B In Range?	Both In Range?
0.087095	2499.596844	2499.596844	-0.403156	-0.403156	0.162535	0.162535	0.570149	1.000000	1.000000	1.000000	
0.141855	2495.329658	2495.329658	-4.670342	-4.670342	21.812094	21.812094	6.604861	1.000000	1.000000	1.000000	
0.200357	2493.376130	2493.376130	-6.623870	-6.623870	43.875658	43.875658	9.367567	1.000000	1.000000	1.000000	
0.303967	2490.006401	2490.006401	-9.993599	-9.993599	99.872028	99.872028	14.133084	1.000000	1.000000	1.000000	
0.401221	2486.698304	2486.698304	-13.301696	-13.301696	176.935113	176.935113	18.811439	1.000000	1.000000	1.000000	
0.503258	2483.369998	2483.369998	-16.630002	-16.630002	276.556951	276.556951	23.518374	1.000000	1.000000	1.000000	
0.600664	2480.036539	2480.036539	-19.963461	-19.963461	398.539776	398.539776	28.232597	1.000000	1.000000	1.000000	
0.700424	2476.710522	2476.710522	-23.289478	-23.289478	542.399806	542.399806	32.936296	1.000000	1.000000	1.000000	
0.802675	2473.377490	2473.377490	-26.622510	-26.622510	708.758051	708.758051	37.649915	1.000000	1.000000	1.000000	
0.900150	2470.055749	2470.055749	-29.944251	-29.944251	896.658143	896.658143	42.347565	1.000000	1.000000	1.000000	
0.999280	2466.741815	2466.741815	-33.258185	-33.258185	1106.106889	1106.106889	47.034177	1.000000	1.000000	1.000000	
1.099324	2463.411135	2463.411135	-36.588865	-36.588865	1338.745020	1338.745020	51.744469	1.000000	1.000000	1.000000	
1.202515	2460.042112	2460.042112	-39.957888	-39.957888	1596.632814	1596.632814	56.508987	1.000000	1.000000	1.000000	
1.299492	2456.740452	2456.740452	-43.259548	-43.259548	1871.388453	1871.388453	61.178239	1.000000	1.000000	1.000000	
1.399547	2453.409516	2453.409516	-46.590484	-46.590484	2170.673159	2170.673159	65.888894	1.000000	1.000000	1.000000	
1.502917	2450.036430	2450.036430	-49.963570	-49.963570	2496.358336	2496.358336	70.659158	1.000000	1.000000	1.000000	
1.599665	2446.738791	2446.738791	-53.261209	-53.261209	2836.756403	2836.756403	75.322724	1.000000	1.000000	1.000000	
1.706177	2443.409908	2443.409908	-56.590092	-56.590092	3202.438537	3202.438537	80.030476	1.000000	1.000000	1.000000	
1.799438	2440.074909	2440.074909	-59.925091	-59.925091	3591.016588	3591.016588	84.746877	1.000000	1.000000	1.000000	
1.900890	2436.727613	2436.727613	-63.272387	-63.272387	4003.394993	4003.394993	89.480668	1.000000	1.000000	1.000000	
1.999441	2433.409337	2433.409337	-66.590663	-66.590663	4434.316427	4434.316427	94.173419	1.000000	1.000000	1.000000	
2.116825	2430.038859	2430.038859	-69.961141	-69.961141	4894.561211	4894.561211	98.939994	1.000000	1.000000	1.000000	
2.199667	2426.736173	2426.736173	-73.263827	-73.263827	5367.588308	5367.588308	103.610697	1.000000	1.000000	1.000000	
2.299490	2423.404040	2423.404040	-76.595960	-76.595960	5866.941143	5866.941143	108.323046	1.000000	1.000000	1.000000	
2.399247	2420.077766	2420.077766	-79.922234	-79.922234	6387.563550	6387.563550	113.027108	1.000000	1.000000	1.000000	
2.499918	2416.737698	2416.737698	-83.262302	-83.262302	6932.610928	6932.610928	117.750677	1.000000	1.000000	1.000000	
2.601857	2413.411445	2413.411445	-86.588555	-86.588555	7497.577790	7497.577790	122.454708	1.000000	1.000000	1.000000	
2.703008	2410.039834	2410.039834	-89.960166	-89.960166	8092.831385	8092.831385	127.222886	1.000000	1.000000	1.000000	
2.822532	2406.738111	2406.738111	-93.261889	-93.261889	8697.779982	8697.779982	131.892229	1.000000	1.000000	1.000000	
2.900707	2403.405870	2403.405870	-96.594130	-96.594130	9330.425906	9330.425906	136.604728	1.000000	1.000000	1.000000	
3.003418	2400.033382	2400.033382	-99.966618	-99.966618	9993.324615	9993.324615	141.374146	1.000000	1.000000	1.000000	
3.099358	2396.742351	2396.742351	-103.257649	-103.257649	10662.141977	10662.141977	146.028367	1.000000	1.000000	1.000000	
3.200974	2393.404914	2393.404914	-106.595086	-106.595086	11362.512294	11362.512294	150.748216	1.000000	1.000000	1.000000	
3.302668	2390.042692	2390.042692	-109.957308	-109.957308	12090.609686	12090.609686	155.503117	1.000000	1.000000	1.000000	
3.399348	2386.740497	2386.740497	-113.259503	-113.259503	12827.714935	12827.714935	160.173125	1.000000	1.000000	1.000000	
3.498605	2383.430947	2383.430947	-116.569053	-116.569053	13588.344195	13588.344195	164.853536	1.000000	1.000000	1.000000	
3.599499	2380.073621	2380.073621	-119.926379	-119.926379	14382.336348	14382.336348	169.601511	1.000000	1.000000	1.000000	
3.699246	2376.744054	2376.744054	-123.255946	-123.255946	15192.028285	15192.028285	174.310231	1.000000	1.000000	1.000000	
3.799722	2373.403323	2373.403323	-126.596677	-126.596677	16026.718567	16026.718567	179.034737	1.000000	1.000000	1.000000	
4.001900	2370.072644	2370.072644	-129.927356	-129.927356	16881.117883	16881.117883	183.745029	1.000000	1.000000	1.000000	
4.006636	2366.535019	2366.535019	-133.464981	-133.464981	17812.901265	17812.901265	188.747987	1.000000	1.000000	1.000000	
4.100747	2363.412333	2363.412333	-136.587667	-136.587667	18656.190810	18656.190810	193.164131	1.000000	1.000000	1.000000	
4.199397	2360.075067	2360.075067	-139.924933	-139.924933	19578.986936	19578.986936	197.883738	1.000000	1.000000	1.000000	
4.299633	2356.738613	2356.738613	-143.261387	-143.261387	20523.824911	20523.824911	202.602196	1.000000	1.000000	1.000000	
4.399270	2353.411356	2353.411356	-146.588644	-146.588644	21488.230677	21488.230677	207.307649	1.000000	1.000000	1.000000	
4.502740	2350.039402	2350.039402	-149.960598	-149.960598	22488.180812	22488.180812	212.076311	1.000000	1.000000	1.000000	
4.599857	2346.738556	2346.738556	-153.261444	-153.261444	23489.070343	23489.070343	216.744413	0.000000	0.000000	0.000000	
4.699162	2343.414099	2343.414099	-156.585901	-156.585901	24519.144297	24519.144297	221.445904	0.000000	0.000000	0.000000	
4.799494	2340.071915	2340.071915	-159.928085	-159.928085	25576.992505	25576.992505	226.172467	0.000000	0.000000	0.000000	
4.899416	2336.740743	2336.740743	-163.259257	-163.259257	26653.584896	26653.584896	230.883455	0.000000	0.000000	0.000000	
4.999468	2333.408289	2333.408289	-166.591711	-166.591711	27752.798204	27752.798204	235.596257	0.000000	0.000000	0.000000	
5.102945	2330.036699	2330.036699	-169.963301	-169.963301	28887.523564	28887.523564	240.364405	0.000000	0.000000	0.000000	
5.199594	2326.734954	2326.734954	-173.265046	-173.265046	30020.776062	30020.776062	245.033778	0.000000	0.000000	0.000000	
5.300791	2323.400169	2323.400169	-176.599831	-176.599831	31187.500344	31187.500344	249.749876	0.000000	0.000000	0.000000	
5.402749	2320.042801	2320.042801	-179.957199	-179.957199	32384.593617	32384.593617	254.497912	0.000000	0.000000	0.000000	
5.499687	2316.738147	2316.738147	-183.261853	-183.261853	33584.906718	33584.906718	259.171398	0.000000	0.000000	0.000000	
5.599746	2313.412215	2316.072961	-186.587785	-183.927039	34815.001415	33829.155766	262.000300	0.000000	0.000000	0.000000	
5.702874	2310.038466	2315.398211	-189.961534	-184.601789	36085.384479	34077.820553	264.883380	0.000000	0.000000	0.000000	
5.799503	2306.745617	2314.739641	-193.254383	-185.260359	37347.256540	34321.400577	267.710024	0.000000	0.000000	0.000000	
5.900721	2303.410147	2314.072547	-196.589853	-185.927453	38647.570186	34569.017719	270.585639	0.000000	0.000000	0.000000	
6.002806	2300.040867	2313.398691	-199.959133	-186.601309	39983.654725	34820.048455	273.502657	0.000000	0.000000	0.000000	
6.100468	2296.745046	2312.739527	-203.254954	-187.260473	41312.576311	35066.484782	276.367619	0.000000	0.000000	0.000000	
6.199550	2293.408208	2315.075314	-206.591792	-184.924686	42680.168668	34197.139573	277.267575	0.000000	0.000000	0.000000	
6.302605	2290.042863	2317.431055	-209.957137	-182.568945	44081.999539	33331.419567	278.232671	0.000000	0.000000	0.000000	
6.399772	2286.736477	2319.745525	-213.263523	-180.254475	45481.330271	32491.675656	279.236470	0.000000	0.000000	0.000000	
6.500206	2283.408000	2322.075459	-216.592000	-177.924541	46912.094374	31657.142294	280.302045	0.000000	0.000000	0.000000	
6.599577	2280.078433	2324.406156	-219.921567	-175.593844	48365.495706	30833.197997	281.422625	0.000000	0.000000	0.000000	
6.703501	2279.411625	2326.739982	-220.588375	-173.260018	48659.230987	30019.033841	280.496461	0.000000	0.000000	0.000000	
6.799400	2278.744442	2329.075125	-221.255558	-170.924875	48954.022085	29215.312838	279.587795	0.000000	0.000000	0.000000	
6.903095	2278.070013	2331.435627	-221.929987	-168.564373	49252.919320	28413.947825	278.687759	0.000000	0.000000	0.000000	
6.999536	2277.411315	2333.741070	-222.588685	-166.258930	49545.722910	27642.031709	277.826843	0.000000	0.000000	0.000000	
7.099622	2276.743493	2336.078444	-223.256507	-163.921556	49843.467712	26870.276537	276.972461	0.000000	0.000000	0.000000	
7.202964	2276.070074	2338.435413	-223.929926	-161.564587	50144.611877	26103.115775	276.129911	0.000000	0.000000	0.000000	
7.328559	2275.229237	2341.378342	-224.770763	-158.621658	50521.895979	25160.830330	275.104937	0.000000	0.000000	0.000000	
7.399457	2280.712232	2343.077571	-219.287768	-156.922429	48087.125212	24624.648655	269.651208	0.000000	0.000000	0.000000	
7.502853	2283.069411	2345.434750	-216.930589	-154.565250	47058.880628	23890.416559	266.363093	0.000000	0.000000	0.000000	
7.602044	2285.376261	2347.741600	-214.623739	-152.258400	46063.349360	23182.620304	263.146289	0.000000	0.000000	0.000000	
7.699702	2287.710431	2350.075770	-212.289569	-149.924230	45066.861064	22477.274634	259.892546	0.000000	1.000000	0.000000	
7.799556	2290.045215	2352.410554	-209.954785	-147.589446	44081.011744	21782.644494	256.639156	0.000000	1.000000	0.000000	
7.899611	2292.378203	2354.743542	-207.621797	-145.256458	43106.810783	21099.438651	253.389521	0.000000	1.000000	0.000000	
7.999363	2294.709873	2357.075212	-205.290127	-142.924788	42144.036355	20427.495028	250.143022	0.000000	1.000000	0.000000	
8.106459	2297.071123	2359.436462	-202.928877	-140.563538	41180.129075	19758.108111	246.856714	0.000000	1.000000	0.000000	
8.199243	2299.375623	2361.740963	-200.624377	-138.259037	40250.140547	19115.561449	243.650779	0.000000	1.000000	0.000000	
8.299354	2301.709659	2364.074998	-198.290341	-135.925002	39319.059468	18475.606190	240.405211	0.000000	1.000000	0.000000	
8.399725	2304.046389	2366.411728	-195.953611	-133.588272	38397.817810	17845.826447	237.157425	0.000000	1.000000	0.000000	
8.502650	2306.398328	2368.763667	-193.601672	-131.236333	37481.607464	17222.975074	233.890108	0.000000	1.000000	0.000000	
8.599400	2308.706600	2371.071940	-191.293400	-128.928060	36593.164751	16622.444757	230.685087	0.000000	1.000000	0.000000	
8.702896	2311.069632	2373.434971	-188.930368	-126.565029	35694.683904	16018.706468	227.405784	0.000000	1.000000	0.000000	
8.799276	2313.373623	2375.738963	-186.626377	-124.261037	34829.404483	15440.805428	224.210191	0.000000	1.000000	0.000000	
8.900796	2315.712674	2378.078013	-184.287326	-121.921987	33961.818684	14864.970957	220.967848	0.000000	1.000000	0.000000	
9.000255	2318.054373	2380.419713	-181.945627	-119.580287	33104.211009	14299.445101	217.723807	0.000000	1.000000	0.000000	
9.103401	2320.401492	2382.766832	-179.598508	-117.233168	32255.623918	13743.615750	214.474333	0.000000	1.000000	0.000000	
9.199330	2322.706487	2385.071826	-177.293513	-114.928174	31432.989902	13208.485217	211.285293	0.000000	1.000000	0.000000	
9.302537	2325.068306	2387.433645	-174.931694	-112.566355	30601.097632	12671.184263	208.019907	0.000000	1.000000	0.000000	
9.399118	2327.373584	2389.738924	-172.626416	-110.261076	29799.879373	12157.504962	204.835017	0.000000	1.000000	0.000000	
9.499918	2329.709117	2392.074456	-170.290883	-107.925544	28998.984915	11647.923044	201.610783	0.000000	1.000000	0.000000	
9.602348	2332.065218	2394.430557	-167.934782	-105.569443	28202.091155	11144.907335	198.360779	0.000000	1.000000	0.000000	
9.699364	2334.377996	2396.743335	-165.622004	-103.256665	27430.648225	10661.938824	195.173223	0.000000	1.000000	0.000000	
9.805977	2336.858091	2399.223430	-163.141909	-100.776570	26615.282465	10155.917005	191.758180	0.000000	1.000000	0.000000	
9.902638	2339.062848	2401.428187	-160.937152	-98.571813	25900.766944	9716.402298	188.725116	0.000000	1.000000	0.000000	
9.999469	2341.377542	2403.742882	-158.622458	-96.257118	25161.084065	9265.432838	185.543841	0.000000	1.000000	0.000000	
10.103378	2343.704003	2406.069342	-156.295997	-93.930658	24428.438647	8822.968445	182.349684	0.000000	1.000000	0.000000	
10.199077	2346.037125	2408.402465	-153.962875	-91.597535	23704.566768	8390.108488	179.149868	0.000000	1.000000	0.000000	
10.303013	2348.405801	2410.771140	-151.594199	-89.228860	22980.801253	7961.789459	175.905062	0.000000	1.000000	0.000000	
10.400373	2350.706603	2413.071943	-149.293397	-86.928057	22288.518286	7556.487164	172.757071	1.000000	1.000000	1.000000	
10.501793	2353.040175	2415.405514	-146.959825	-84.594486	21597.190254	7156.227070	169.568326	1.000000	1.000000	1.000000	
10.599677	2355.377982	2417.743322	-144.622018	-82.256678	20915.527952	6766.161119	166.378151	1.000000	1.000000	1.000000	
10.699964	2357.704758	2420.070097	-142.295242	-79.929903	20247.936017	6388.789421	163.207615	1.000000	1.000000	1.000000	
10.802464	2360.062939	2422.428278	-139.937061	-77.571722	19582.380996	6017.371989	159.999228	1.000000	1.000000	1.000000	
10.899215	2362.372529	2424.737868	-137.627471	-75.262132	18941.320772	5664.388474	156.862071	1.000000	1.000000	1.000000	
11.002515	2364.730666	2427.096005	-135.269334	-72.903995	18297.792806	5314.992495	153.664522	1.000000	1.000000	1.000000	
11.099362	2367.039148	2429.404487	-132.960852	-70.595513	17678.588226	4983.726452	150.540077	1.000000	1.000000	1.000000	
11.202538	2369.397749	2431.763088	-130.602251	-68.236912	17056.948094	4656.276191	147.354078	1.000000	1.000000	1.000000	
11.339546	2371.704898	2434.070238	-128.295102	-65.929762	16459.633123	4346.733577	144.244122	1.000000	1.000000	1.000000	
11.399386	2374.044502	2436.409842	-125.955498	-63.590158	15864.787365	4043.708233	141.097468	1.000000	1.000000	1.000000	
11.502978	2376.398612	2438.763952	-123.601388	-61.236048	15277.303050	3749.853633	137.938960	1.000000	1.000000	1.000000	
11.600704	2378.708502	2441.073841	-121.291498	-58.926159	14711.627608	3472.292243	134.847765	1.000000	1.000000	1.000000	
11.702589	2381.061279	2443.426618	-118.938721	-56.573382	14146.419349	3200.547520	131.707885	1.000000	1.000000	1.000000	
11.799892	2383.370195	2445.735534	-116.629805	-54.264466	13602.511362	2944.632218	128.635701	1.000000	1.000000	1.000000	
11.900016	2385.705518	2448.070857	-114.294482	-51.929143	13063.228608	2696.635862	125.538299	1.000000	1.000000	1.000000	
11.999416	2388.037862	2450.403201	-111.962138	-49.596799	12535.520375	2459.842458	122.455555	1.000000	1.000000	1.000000	
12.104313	2390.373245	2452.738584	-109.626755	-47.261416	12018.025509	2233.641460	119.380346	1.000000	1.000000	1.000000	
12.199991	2392.705933	2455.071272	-107.294067	-44.928728	11512.016879	2018.590604	116.321139	1.000000	1.000000	1.000000	
12.302755	2395.066360	2457.431699	-104.933640	-42.568301	11011.068857	1812.060250	113.239256	1.000000	1.000000	1.000000	
12.399837	2397.378764	2459.744103	-102.621236	-40.255897	10531.118099	1620.537231	110.234547	1.000000	1.000000	1.000000	
12.499320	2399.703638	2462.068977	-100.296362	-37.931023	10059.360263	1438.762499	107.229300	1.000000	1.000000	1.000000	
12.634279	2402.066550	2464.431889	-97.933450	-35.568111	9590.960656	1265.090512	104.192376	1.000000	1.000000	1.000000	
12.699175	2404.374613	2466.739952	-95.625387	-33.260048	9144.214679	1106.230790	101.244484	1.000000	1.000000	1.000000	
12.810873	2406.707615	2469.072955	-93.292385	-30.927045	8703.469044	956.482140	98.285051	1.000000	1.000000	1.000000	
12.899163	2409.039061	2471.404400	-90.960939	-28.595600	8273.892434	817.708328	95.349886	1.000000	1.000000	1.000000	
13.004286	2411.399653	2473.764992	-88.600347	-26.235008	7850.021549	688.275649	92.402907	1.000000	1.000000	1.000000	
13.100160	2413.705560	2476.070899	-86.294440	-23.929101	7446.730384	572.601865	89.550724	1.000000	1.000000	1.000000	
13.202547	2416.064490	2478.429829	-83.935510	-21.570171	7045.169835	465.272265	86.662807	1.000000	1.000000	1.000000	
13.299968	2418.377598	2480.742937	-81.622402	-19.257063	6662.216548	370.834475	83.863288	1.000000	1.000000	1.000000	
13.400895	2420.709597	2483.074937	-79.290403	-16.925063	6286.967962	286.457773	81.076666	1.000000	1.000000	1.000000	
13.533910	2423.063363	2485.428702	-76.936637	-14.571298	5919.246143	212.322724	78.304335	1.000000	1.000000	1.000000	
13.601115	2425.372249	2487.737588	-74.627751	-12.262412	5569.301209	150.366740	75.628486	1.000000	1.000000	1.000000	
13.699167	2427.706943	2490.072282	-72.293057	-9.927718	5226.286068	98.559577	72.971540	1.000000	1.000000	1.000000	
13.802741	2430.068912	2492.434251	-69.931088	-7.565749	4890.357057	57.240553	70.339161	1.000000	1.000000	1.000000	
13.899104	2432.370957	2494.736296	-67.629043	-5.263704	4573.687432	27.706575	67.833576	1.000000	1.000000	1.000000	
14.000321	2434.710157	2497.075496	-65.289843	-2.924504	4262.763579	8.552721	65.355308	1.000000	1.000000	1.000000	
14.099115	2437.038294	2499.403634	-62.961706	-0.596366	3964.176360	0.355653	62.964530	1.000000	1.000000	1.000000	
14.200815	2439.377734	2501.743073	-60.622266	1.743073	3675.059137	3.038304	60.647320	1.000000	1.000000	1.000000	
14.300063	2441.708132	2504.073471	-58.291868	4.073471	3397.941904	16.593166	58.434023	1.000000	1.000000	1.000000	
14.399352	2444.044113	2506.409452	-55.955887	6.409452	3131.061264	41.081081	56.321775	1.000000	1.000000	1.000000	
14.502600	2446.399271	2508.764610	-53.600729	8.764610	2873.038157	76.818392	54.312582	1.000000	1.000000	1.000000	
14.601654	2448.708487	2511.073826	-51.291513	11.073826	2630.819354	122.629618	52.473317	1.000000	1.000000	1.000000	
14.716903	2451.449235	2513.814574	-48.550765	13.814574	2357.176826	190.842449	50.477909	1.000000	1.000000	1.000000	
14.800017	2453.376977	2515.742316	-46.623023	15.742316	2173.706319	247.820506	49.209012	1.000000	1.000000	1.000000	
14.899687	2455.688647	2518.053986	-44.311353	18.053986	1963.495991	325.946425	47.848118	1.000000	1.000000	1.000000	
15.002556	2458.061783	2520.427123	-41.938217	20.427123	1758.814003	417.267344	46.648487	1.000000	1.000000	1.000000	
15.099287	2460.371463	2522.736802	-39.628537	22.736802	1570.420932	516.962184	45.687888	1.000000	1.000000	1.000000	
15.201287	2462.753551	2525.118891	-37.246449	25.118891	1387.297933	630.958668	44.925011	1.000000	1.000000	1.000000	
15.299134	2465.037992	2527.403331	-34.962008	27.403331	1222.341996	750.942570	44.421668	1.000000	1.000000	1.000000	
15.399220	2467.371878	2529.737217	-32.628122	29.737217	1064.594357	884.302080	44.146307	1.000000	1.000000	1.000000	
15.501587	2469.712275	2532.077615	-30.287725	32.077615	917.346263	1028.973360	44.117113	1.000000	1.000000	1.000000	
15.599052	2472.035937	2534.401276	-27.964063	34.401276	781.988833	1183.447792	44.333245	1.000000	1.000000	1.000000	
15.702546	2474.399657	2536.764996	-25.600343	36.764996	655.377554	1351.664961	44.800028	1.000000	1.000000	1.000000	
15.801292	2476.705115	2539.070455	-23.294885	39.070455	542.651651	1526.500423	45.487933	1.000000	1.000000	1.000000	
15.899048	2479.036786	2541.402125	-20.963214	41.402125	439.456360	1714.135938	46.406813	1.000000	1.000000	1.000000	
16.002604	2481.398590	2543.763929	-18.601410	43.763929	346.012461	1915.281487	47.553065	1.000000	1.000000	1.000000	
