AF-MATB V. 3.03
Programmed using MATLAB 7.5.0 and other Custom MATLAB Functions.

William Daniel Miller, Jr.
Air Force Research Laboratory
711th Human Performance Wing
Human Effectiveness Directorate
Applied Neuroscience Branch

RMS Target Value is:	2500.000000	
Main Tank Automation Lower Limit is:	2350.000000	
Main Tank Automation Upper Limit is:	2650.000000	


Event Time	Tank A Value	Tank B Value	Tank A Difference	Tank B Difference	Tank A Deviation	Tank B Deviation	Euclidian Distance From Target	Tank A In Range?	Tank B In Range?	Both In Range?
0.093958	2499.594106	2499.594106	-0.405894	-0.405894	0.164750	0.164750	0.574020	1.000000	1.000000	1.000000	
0.106985	2496.566029	2496.566029	-3.433971	-3.433971	11.792154	11.792154	4.856368	1.000000	1.000000	1.000000	
0.200185	2493.382823	2493.382823	-6.617177	-6.617177	43.787028	43.787028	9.358101	1.000000	1.000000	1.000000	
0.303986	2490.007534	2490.007534	-9.992466	-9.992466	99.849376	99.849376	14.131481	1.000000	1.000000	1.000000	
0.403691	2486.679849	2486.679849	-13.320151	-13.320151	177.426434	177.426434	18.837539	1.000000	1.000000	1.000000	
0.500496	2483.376906	2483.376906	-16.623094	-16.623094	276.327256	276.327256	23.508605	1.000000	1.000000	1.000000	
0.600209	2480.047959	2480.047959	-19.952041	-19.952041	398.083951	398.083951	28.216447	1.000000	1.000000	1.000000	
0.703636	2476.675685	2476.675685	-23.324315	-23.324315	544.023677	544.023677	32.985563	1.000000	1.000000	1.000000	
0.800303	2473.373555	2473.373555	-26.626445	-26.626445	708.967581	708.967581	37.655480	1.000000	1.000000	1.000000	
0.906062	2469.934238	2469.934238	-30.065762	-30.065762	903.950046	903.950046	42.519408	1.000000	1.000000	1.000000	
1.000621	2466.707534	2466.707534	-33.292466	-33.292466	1108.388290	1108.388290	47.082657	1.000000	1.000000	1.000000	
1.100233	2463.381773	2463.381773	-36.618227	-36.618227	1340.894531	1340.894531	51.785993	1.000000	1.000000	1.000000	
1.200178	2460.048656	2460.048656	-39.951344	-39.951344	1596.109895	1596.109895	56.499733	1.000000	1.000000	1.000000	
1.303926	2456.673944	2456.673944	-43.326056	-43.326056	1877.147120	1877.147120	61.272296	1.000000	1.000000	1.000000	
1.400605	2453.378358	2453.378358	-46.621642	-46.621642	2173.577502	2173.577502	65.932958	1.000000	1.000000	1.000000	
1.500275	2450.049603	2450.049603	-49.950397	-49.950397	2495.042133	2495.042133	70.640529	1.000000	1.000000	1.000000	
1.599659	2446.734150	2446.734150	-53.265850	-53.265850	2837.250754	2837.250754	75.329287	1.000000	1.000000	1.000000	
1.700170	2443.383198	2443.383198	-56.616802	-56.616802	3205.462325	3205.462325	80.068250	1.000000	1.000000	1.000000	
1.800164	2440.049802	2440.049802	-59.950198	-59.950198	3594.026222	3594.026222	84.782383	1.000000	1.000000	1.000000	
1.951307	2435.018241	2435.018241	-64.981759	-64.981759	4222.629053	4222.629053	91.898085	1.000000	1.000000	1.000000	
2.008263	2433.281559	2433.281559	-66.718441	-66.718441	4451.350309	4451.350309	94.354123	1.000000	1.000000	1.000000	
2.100138	2430.050087	2430.050087	-69.949913	-69.949913	4892.990388	4892.990388	98.924116	1.000000	1.000000	1.000000	
2.203760	2426.676893	2426.676893	-73.323107	-73.323107	5376.278001	5376.278001	103.694532	1.000000	1.000000	1.000000	
2.300120	2423.383189	2423.383189	-76.616811	-76.616811	5870.135735	5870.135735	108.352533	1.000000	1.000000	1.000000	
2.403553	2420.011770	2420.011770	-79.988230	-79.988230	6398.116861	6398.116861	113.120439	1.000000	1.000000	1.000000	
2.500129	2416.715928	2416.715928	-83.284072	-83.284072	6936.236687	6936.236687	117.781464	1.000000	1.000000	1.000000	
2.604214	2413.337409	2413.337409	-86.662591	-86.662591	7510.404613	7510.404613	122.559411	1.000000	1.000000	1.000000	
2.700306	2412.679297	2410.046849	-87.320703	-89.953151	7624.905125	8091.569404	125.365364	1.000000	1.000000	1.000000	
2.803544	2412.006147	2406.681097	-87.993853	-93.318903	7742.918166	8708.417566	128.262761	1.000000	1.000000	1.000000	
2.900477	2411.345319	2403.376957	-88.654681	-96.623043	7859.652471	9336.012387	131.132242	1.000000	1.000000	1.000000	
3.000154	2410.679589	2400.048309	-89.320411	-99.951691	7978.135751	9990.340442	134.046545	1.000000	1.000000	1.000000	
3.100461	2410.012359	2396.712155	-89.987641	-103.287845	8097.775608	10668.378842	136.989614	1.000000	1.000000	1.000000	
3.203818	2409.338763	2393.344180	-90.661237	-106.655820	8219.459804	11375.463946	139.981869	1.000000	1.000000	1.000000	
3.300083	2408.680018	2390.050454	-91.319982	-109.949546	8339.339043	12088.902576	142.927400	1.000000	1.000000	1.000000	
3.403578	2408.006291	2386.681816	-91.993709	-113.318184	8462.842549	12841.010817	145.958396	1.000000	1.000000	1.000000	
3.500095	2407.346724	2383.383984	-92.653276	-116.616016	8584.629480	13599.295075	148.942689	1.000000	1.000000	1.000000	
3.603864	2406.671846	2380.009593	-93.328154	-119.990407	8710.144293	14397.697662	152.012637	1.000000	1.000000	1.000000	
3.700050	2406.013927	2379.351674	-93.986073	-120.648326	8833.382002	14556.018610	152.935936	1.000000	1.000000	1.000000	
3.800360	2405.345327	2378.683074	-94.654673	-121.316926	8959.507105	14717.796450	153.874311	1.000000	1.000000	1.000000	
3.907712	2404.630552	2377.968300	-95.369448	-122.031700	9095.331534	14891.735885	154.877588	1.000000	1.000000	1.000000	
4.005659	2404.006062	2377.343810	-95.993938	-122.656190	9214.836073	15044.541049	155.754220	1.000000	1.000000	1.000000	
4.100314	2403.346534	2376.684282	-96.653466	-123.315718	9341.892394	15206.766365	156.680116	1.000000	1.000000	1.000000	
4.200069	2402.680035	2376.017782	-97.319965	-123.982218	9471.175575	15371.590299	157.615881	1.000000	1.000000	1.000000	
4.299962	2402.013826	2375.351574	-97.986174	-124.648426	9601.290203	15537.230170	158.551318	1.000000	1.000000	1.000000	
4.403727	2401.338572	2374.676319	-98.661428	-125.323681	9734.077398	15706.024982	159.499537	1.000000	1.000000	1.000000	
4.500404	2400.679275	2374.017022	-99.320725	-125.982978	9864.606409	15871.710672	160.425425	1.000000	1.000000	1.000000	
4.600295	2400.012429	2373.350176	-99.987571	-126.649824	9997.514324	16040.177813	161.361991	1.000000	1.000000	1.000000	
4.701560	2399.343402	2372.681149	-100.656598	-127.318851	10131.750726	16210.089759	162.301696	1.000000	1.000000	1.000000	
4.800655	2398.679199	2372.016947	-101.320801	-127.983053	10265.904649	16379.661960	163.234698	1.000000	1.000000	1.000000	
4.903819	2398.004856	2371.342603	-101.995144	-128.657397	10403.009450	16552.725798	164.182019	1.000000	1.000000	1.000000	
5.000169	2397.346269	2370.684016	-102.653731	-129.315984	10537.788511	16722.623677	165.107275	1.000000	1.000000	1.000000	
5.100092	2396.680112	2370.017859	-103.319888	-129.982141	10674.999334	16895.357008	166.043236	1.000000	1.000000	1.000000	
5.203630	2396.005858	2369.343605	-103.994142	-130.656395	10814.781598	17071.093519	166.990644	1.000000	1.000000	1.000000	
5.300129	2395.346484	2368.684231	-104.653516	-131.315769	10952.358405	17243.831111	167.917210	1.000000	1.000000	1.000000	
5.400049	2394.679972	2368.017719	-105.320028	-131.982281	11092.308348	17419.322491	168.853874	1.000000	1.000000	1.000000	
5.500073	2394.013434	2367.351181	-105.986566	-132.648819	11233.152207	17595.709155	169.790640	1.000000	1.000000	1.000000	
5.599491	2393.351622	2366.689369	-106.648378	-133.310631	11373.876516	17771.724249	170.720827	1.000000	1.000000	1.000000	
5.700111	2392.679849	2366.017596	-107.320151	-133.982404	11517.614808	17951.284508	171.665079	1.000000	1.000000	1.000000	
5.802856	2392.011724	2365.349472	-107.988276	-134.650528	11661.467690	18130.764810	172.604266	1.000000	1.000000	1.000000	
5.911308	2391.272168	2364.609916	-108.727832	-135.390084	11821.741386	18330.474964	173.643936	1.000000	1.000000	1.000000	
6.001123	2390.680124	2364.017871	-109.319876	-135.982129	11950.835283	18491.139328	174.476287	1.000000	1.000000	1.000000	
6.103674	2390.006486	2363.344233	-109.993514	-136.655767	12098.573085	18674.798535	175.423407	1.000000	1.000000	1.000000	
6.200051	2389.346898	2362.684646	-110.653102	-137.315354	12244.108877	18855.506515	176.350830	1.000000	1.000000	1.000000	
6.303743	2388.672072	2362.009819	-111.327928	-137.990181	12393.907643	19041.290091	177.299740	1.000000	1.000000	1.000000	
6.400131	2388.013305	2361.351052	-111.986695	-138.648948	12541.019835	19223.530681	178.226122	1.000000	1.000000	1.000000	
6.503959	2387.338705	2360.676452	-112.661295	-139.323548	12692.567414	19411.050981	179.174826	1.000000	1.000000	1.000000	
6.600327	2386.679562	2360.017309	-113.320438	-139.982691	12841.521664	19595.153700	180.101847	1.000000	1.000000	1.000000	
6.703730	2386.005398	2359.343145	-113.994602	-140.656855	12994.769266	19784.350760	181.050048	1.000000	1.000000	1.000000	
6.800105	2385.346820	2358.684567	-114.653180	-141.315433	13145.351735	19970.051592	181.976381	1.000000	1.000000	1.000000	
6.903694	2384.672019	2358.009766	-115.327981	-141.990234	13300.543303	20161.226601	182.925586	1.000000	1.000000	1.000000	
7.003524	2384.006263	2357.344011	-115.993737	-142.655989	13454.546945	20350.731312	183.862118	1.000000	1.000000	1.000000	
7.100105	2383.346958	2356.684705	-116.653042	-143.315295	13607.932225	20539.273726	184.789626	1.000000	1.000000	1.000000	
7.200095	2382.679838	2356.017586	-117.320162	-143.982414	13764.020337	20730.935661	185.728178	1.000000	1.000000	1.000000	
7.303535	2382.006269	2355.344016	-117.993731	-144.655984	13922.520580	20925.353661	186.675853	1.000000	1.000000	1.000000	
7.400020	2381.346904	2354.684651	-118.653096	-145.315349	14078.557284	21116.550692	187.603593	1.000000	1.000000	1.000000	
7.504136	2380.670422	2354.008169	-119.329578	-145.991831	14239.548304	21313.614787	188.555464	1.000000	1.000000	1.000000	
7.601575	2380.010316	2353.348064	-119.989684	-146.651936	14397.524199	21506.790465	189.484339	1.000000	1.000000	1.000000	
7.703933	2379.338783	2352.676530	-120.661217	-147.323470	14559.129350	21704.204810	190.429342	1.000000	1.000000	1.000000	
7.800361	2378.679139	2352.016887	-121.320861	-147.983113	14718.751206	21899.001819	191.357657	1.000000	1.000000	1.000000	
7.904424	2377.984672	2351.322420	-122.015328	-148.677580	14887.740199	22105.022930	192.335028	1.000000	1.000000	1.000000	
8.006006	2377.339721	2350.677468	-122.660279	-149.322532	15045.544117	22297.218572	193.242756	1.000000	1.000000	1.000000	
8.100061	2376.680608	2350.018355	-123.319392	-149.981645	15207.672502	22494.493829	194.170457	1.000000	1.000000	1.000000	
8.203707	2376.005576	2349.343323	-123.994424	-150.656677	15374.617287	22697.434370	195.120608	1.000000	0.000000	0.000000	
8.300541	2375.345701	2348.683449	-124.654299	-151.316551	15538.694178	22896.698731	196.049465	1.000000	0.000000	0.000000	
8.400045	2374.680194	2348.017941	-125.319806	-151.982059	15705.053733	23098.546126	196.986294	1.000000	0.000000	0.000000	
8.503588	2374.006398	2347.344145	-125.993602	-152.655855	15874.387729	23303.809966	197.934832	1.000000	0.000000	0.000000	
8.600192	2373.346909	2346.684656	-126.653091	-153.315344	16041.005526	23505.594704	198.863270	1.000000	0.000000	0.000000	
8.700141	2372.679866	2346.017613	-127.320134	-153.982387	16210.416491	23710.575388	199.802382	1.000000	0.000000	0.000000	
8.803709	2372.005561	2345.343308	-127.994439	-154.656692	16382.576404	23918.692286	200.751759	1.000000	0.000000	0.000000	
8.900119	2371.346363	2344.684110	-128.653637	-155.315890	16551.758427	24123.025741	201.679905	1.000000	0.000000	0.000000	
9.003772	2370.671801	2344.009548	-129.328199	-155.990452	16725.783094	24333.021077	202.629722	1.000000	0.000000	0.000000	
9.103715	2370.005678	2343.343425	-129.994322	-156.656575	16898.523803	24541.282469	203.567695	1.000000	0.000000	0.000000	
9.200226	2369.347095	2342.684842	-130.652905	-157.315158	17070.181527	24748.058784	204.495086	1.000000	0.000000	0.000000	
9.300097	2368.679890	2342.017637	-131.320110	-157.982363	17244.971272	24958.426913	205.434657	1.000000	0.000000	0.000000	
9.400320	2368.012788	2341.350535	-131.987212	-158.649465	17420.624245	25169.652797	206.374119	1.000000	0.000000	0.000000	
9.500176	2367.346096	2340.683843	-132.653904	-159.316157	17597.058334	25381.637902	207.313039	1.000000	0.000000	0.000000	
9.599765	2366.684207	2340.021954	-133.315793	-159.978046	17773.100686	25592.975145	208.245230	1.000000	0.000000	0.000000	
9.701262	2366.011365	2339.349112	-133.988635	-160.650888	17952.954419	25808.707861	209.192883	1.000000	0.000000	0.000000	
9.803556	2365.339318	2338.677065	-134.660682	-161.322935	18133.499330	26025.089335	210.139451	1.000000	0.000000	0.000000	
9.906147	2364.640454	2337.978201	-135.359546	-162.021799	18322.206744	26251.063326	211.123826	1.000000	0.000000	0.000000	
10.012090	2364.006576	2337.344323	-135.993424	-162.655677	18494.211491	26456.869317	212.016699	1.000000	0.000000	0.000000	
10.100201	2363.346748	2336.684496	-136.653252	-163.315504	18674.111186	26671.953972	212.946156	1.000000	0.000000	0.000000	
10.200142	2362.679595	2336.017342	-137.320405	-163.982658	18856.893760	26890.312193	213.885965	1.000000	0.000000	0.000000	
10.303675	2362.005242	2335.342990	-137.994758	-164.657010	19042.553125	27111.931053	214.835947	1.000000	0.000000	0.000000	
10.400185	2364.306719	2334.685425	-135.693281	-165.314575	18412.666603	27328.908700	213.872802	1.000000	0.000000	0.000000	
10.500104	2366.642431	2334.018079	-133.357569	-165.981921	17784.241297	27549.998189	212.918387	1.000000	0.000000	0.000000	
10.603527	2368.999564	2333.344612	-131.000436	-166.655388	17161.114132	27774.018364	211.979085	1.000000	0.000000	0.000000	
10.700197	2371.308466	2332.684926	-128.691534	-167.315074	16561.511022	27994.334025	211.082555	1.000000	0.000000	0.000000	
10.800000	2370.642244	2332.018704	-129.357756	-167.981296	16733.428987	28217.715650	212.016850	1.000000	0.000000	0.000000	
10.900208	2369.974427	2331.350888	-130.025573	-168.649112	16906.649524	28442.523081	212.953452	1.000000	0.000000	0.000000	
11.000103	2369.308552	2330.685013	-130.691448	-169.314987	17080.254465	28667.564920	213.887399	1.000000	0.000000	0.000000	
11.100145	2368.641856	2330.018317	-131.358144	-169.981683	17254.961926	28893.772714	214.822565	1.000000	0.000000	0.000000	
11.199993	2367.975241	2329.351702	-132.024759	-170.648298	17430.536897	29120.841740	215.757685	1.000000	0.000000	0.000000	
11.300000	2367.308605	2328.685065	-132.691395	-171.314935	17607.006294	29348.806844	216.692901	1.000000	0.000000	0.000000	
11.400471	2366.640899	2328.017360	-133.359101	-171.982640	17784.649690	29578.028546	217.629681	1.000000	0.000000	0.000000	
11.503968	2365.967048	2327.343508	-134.032952	-172.656492	17964.832282	29810.264214	218.575151	1.000000	0.000000	0.000000	
11.599991	2365.308529	2326.684990	-134.691471	-173.315010	18141.792267	30038.092824	219.499169	1.000000	0.000000	0.000000	
11.700778	2364.640777	2326.017237	-135.359223	-173.982763	18322.119324	30270.001820	220.436207	1.000000	0.000000	0.000000	
11.802983	2363.971617	2325.348077	-136.028383	-174.651923	18503.720991	30503.294126	221.375281	1.000000	0.000000	0.000000	
11.910172	2363.241021	2324.617482	-136.758979	-175.382518	18703.018221	30759.027727	222.400643	1.000000	0.000000	0.000000	
12.001131	2362.641728	2324.018188	-137.358272	-175.981812	18867.295018	30969.598227	223.241782	1.000000	0.000000	0.000000	
12.103492	2361.968556	2323.345016	-138.031444	-176.654984	19052.679569	31206.983323	224.186670	1.000000	0.000000	0.000000	
12.199970	2361.308712	2322.685172	-138.691288	-177.314828	19235.273492	31440.548293	225.112909	1.000000	0.000000	0.000000	
12.300162	2360.641284	2322.017744	-139.358716	-177.982256	19420.851727	31677.683357	226.049851	1.000000	0.000000	0.000000	
12.403519	2359.967894	2321.344354	-140.032106	-178.655646	19608.990653	31917.839677	226.995221	1.000000	0.000000	0.000000	
12.500166	2359.307917	2320.684378	-140.692083	-179.315622	19794.262135	32154.092448	227.921817	1.000000	0.000000	0.000000	
12.600361	2358.640849	2320.017309	-141.359151	-179.982691	19982.409567	32393.768957	228.858425	1.000000	0.000000	0.000000	
12.704173	2357.966219	2319.342679	-142.033781	-180.657321	20173.594979	32637.067577	229.805706	1.000000	0.000000	0.000000	
12.800272	2357.308043	2318.684503	-142.691957	-181.315497	20360.994702	32875.309494	230.729938	1.000000	0.000000	0.000000	
12.903438	2356.634439	2318.010899	-143.365561	-181.989101	20553.684088	33120.032793	231.675888	1.000000	0.000000	0.000000	
13.003706	2355.966370	2317.342830	-144.033630	-182.657170	20745.686611	33363.641705	232.614119	1.000000	0.000000	0.000000	
13.100154	2358.268325	2316.685129	-141.731675	-183.314871	20087.867658	33604.342069	231.715795	1.000000	0.000000	0.000000	
13.200022	2360.602091	2316.018338	-139.397909	-183.981662	19431.777006	33849.251825	230.826837	1.000000	0.000000	0.000000	
13.303521	2362.960527	2315.344499	-137.039473	-184.655501	18779.817112	34097.653876	229.951019	1.000000	0.000000	0.000000	
13.400023	2365.269174	2314.684886	-134.730826	-185.315114	18152.395495	34341.691436	229.115881	1.000000	0.000000	0.000000	
13.500110	2367.601518	2314.018502	-132.398482	-185.981498	17529.358100	34589.117539	228.294712	1.000000	0.000000	0.000000	
13.603606	2369.961256	2313.344291	-130.038744	-186.655709	16910.074889	34840.353637	227.487205	1.000000	0.000000	0.000000	
13.700197	2372.269903	2312.684678	-127.730097	-187.315322	16314.977692	35087.029924	226.720109	1.000000	0.000000	0.000000	
13.800488	2374.607396	2312.016823	-125.392604	-187.983177	15723.305044	35337.675002	225.966768	1.000000	0.000000	0.000000	
13.903255	2377.009574	2311.330486	-122.990426	-188.669514	15126.644888	35596.185479	225.217296	1.000000	0.000000	0.000000	
14.007792	2379.319089	2310.670625	-120.680911	-189.329375	14563.882281	35845.612365	224.520588	1.000000	0.000000	0.000000	
14.102376	2381.604757	2315.925669	-118.395243	-184.074331	14017.433516	33883.359222	218.862497	1.000000	0.000000	0.000000	
14.200013	2383.934466	2318.255378	-116.065534	-181.744622	13471.208097	33031.107457	215.643956	1.000000	0.000000	0.000000	
14.303319	2386.292528	2320.613440	-113.707472	-179.386560	12929.389143	32179.537803	212.388622	1.000000	0.000000	0.000000	
14.399007	2388.578062	2322.898974	-111.421938	-177.101026	12414.848337	31364.773487	209.235804	1.000000	0.000000	0.000000	
14.499103	2390.912905	2325.233818	-109.087095	-174.766182	11899.994193	30543.218524	206.017506	1.000000	0.000000	0.000000	
14.599061	2393.246462	2327.567374	-106.753538	-172.432626	11396.317907	29733.010529	202.803670	1.000000	0.000000	0.000000	
14.698985	2395.577908	2329.898820	-104.422092	-170.101180	10903.973402	28934.411576	199.595554	1.000000	0.000000	0.000000	
14.802413	2397.936059	2332.256971	-102.063941	-167.743029	10417.048022	28137.723697	196.353690	1.000000	0.000000	0.000000	
14.899665	2400.252131	2334.573043	-99.747869	-165.426957	9949.637392	27366.078109	193.172761	1.000000	0.000000	0.000000	
15.003128	2402.579475	2336.900387	-97.420525	-163.099613	9490.758724	26601.483785	189.979584	1.000000	0.000000	0.000000	
15.103147	2404.943554	2339.264467	-95.056446	-160.735533	9035.727832	25835.911702	186.739496	1.000000	0.000000	0.000000	
15.199141	2407.248713	2341.569625	-92.751287	-158.430375	8602.801185	25100.183599	183.583727	1.000000	0.000000	0.000000	
15.299111	2409.579066	2343.899978	-90.420934	-156.100022	8175.945277	24367.216790	180.397234	1.000000	0.000000	0.000000	
15.399051	2411.913191	2346.234103	-88.086809	-153.765897	7759.285851	23643.950932	177.209584	1.000000	0.000000	0.000000	
15.502808	2414.272630	2348.593543	-85.727370	-151.406457	7349.181892	22923.915364	173.991659	1.000000	0.000000	0.000000	
15.598954	2416.577655	2350.898567	-83.422345	-149.101433	6959.287727	22231.237440	170.852349	1.000000	1.000000	1.000000	
15.702635	2418.939653	2353.260565	-81.060347	-146.739435	6570.779794	21532.461645	167.640214	1.000000	1.000000	1.000000	
15.798985	2421.244722	2355.565634	-78.755278	-144.434366	6202.393755	20861.285949	164.510424	1.000000	1.000000	1.000000	
