AF-MATB V. 3.03
Programmed using MATLAB 7.5.0 and other Custom MATLAB Functions.

William Daniel Miller, Jr.
Air Force Research Laboratory
711th Human Performance Wing
Human Effectiveness Directorate
Applied Neuroscience Branch

RMS Center Coordinate (X,Y) is:	599.500000	565.500000	
Tracking Box X-Axis Lower Limit is:	449.500000	
Tracking Box X-Axis Upper Limit is:	749.500000	
Tracking Box Y-Axis Lower Limit is:	417.500000	
Tracking Box Y-Axis Upper Limit is:	717.500000	


Event Time	X Coordinates	Y Coordinates	X-Axis Difference	Y-Axis Difference	X-Axis Deviation	Y-Axis Deviation	Euclidian Distance From Target	X-Axis In Range?	y-Axis In Range?	Both In Range?
0.100223	593.934661	563.439187	-5.565339	-2.060813	30.972994	4.246952	5.934640	1.000000	1.000000	1.000000	
0.108069	588.369323	561.378373	-11.130677	-4.121627	123.891978	16.987807	11.869279	1.000000	1.000000	1.000000	
0.202010	582.803984	559.317560	-16.696016	-6.182440	278.756950	38.222566	17.803919	1.000000	1.000000	1.000000	
0.298336	577.238645	557.256746	-22.261355	-8.243254	495.567910	67.951229	23.738558	1.000000	1.000000	1.000000	
0.402687	571.734147	555.195933	-27.765853	-10.304067	770.942610	106.173796	29.616151	1.000000	1.000000	1.000000	
0.501806	566.139168	553.135120	-33.360832	-12.364880	1112.945109	152.890266	35.578580	1.000000	1.000000	1.000000	
0.598904	560.573829	551.074306	-38.926171	-14.425694	1515.246759	208.100639	41.513220	1.000000	1.000000	1.000000	
0.700082	555.069331	549.013493	-44.430669	-16.486507	1974.084373	271.804917	47.390814	1.000000	1.000000	1.000000	
0.801967	549.564832	546.952680	-49.935168	-18.547320	2493.520998	344.003097	53.268416	1.000000	1.000000	1.000000	
0.898285	543.999493	544.891866	-55.500507	-20.608134	3080.306233	424.695182	59.203052	1.000000	1.000000	1.000000	
1.001739	538.587035	542.831053	-60.912965	-22.668947	3710.389337	513.881170	64.994388	1.000000	1.000000	1.000000	
1.107762	533.967056	542.172679	-65.532944	-23.327321	4294.566739	544.163889	69.560985	1.000000	1.000000	1.000000	
1.198286	529.715237	543.128906	-69.784763	-22.371094	4869.913089	500.465849	73.282869	1.000000	1.000000	1.000000	
1.302225	535.114265	545.464128	-64.385735	-20.035872	4145.522892	401.436173	67.431143	1.000000	1.000000	1.000000	
1.401778	540.452452	547.921030	-59.047548	-17.578970	3486.612893	309.020195	61.608710	1.000000	1.000000	1.000000	
1.500796	546.004360	550.438772	-53.495640	-15.061228	2861.783532	226.840599	55.575391	1.000000	1.000000	1.000000	
1.598401	552.169347	553.018914	-47.330653	-12.481086	2240.190702	155.777519	48.948628	1.000000	1.000000	1.000000	
1.701802	559.343655	555.536655	-40.156345	-9.963345	1612.532080	99.268235	41.373909	1.000000	1.000000	1.000000	
1.801857	566.578802	558.054397	-32.921198	-7.445603	1083.805280	55.436999	33.752663	1.000000	1.000000	1.000000	
1.898818	573.753109	560.634539	-25.746891	-4.865461	662.902376	23.672708	26.202578	1.000000	1.000000	1.000000	
2.001882	581.017897	563.091441	-18.482103	-2.408559	341.588138	5.801156	18.638382	1.000000	1.000000	1.000000	
2.114869	588.345084	565.609183	-11.154916	0.109183	124.432145	0.011921	11.155450	1.000000	1.000000	1.000000	
2.198569	595.609872	568.126925	-3.890128	2.626925	15.133098	6.900735	4.694021	1.000000	1.000000	1.000000	
2.298216	602.874659	570.707067	3.374659	5.207067	11.388324	27.113545	6.204987	1.000000	1.000000	1.000000	
2.401872	610.262687	573.287209	10.762687	7.787209	115.835421	60.640620	13.284429	1.000000	1.000000	1.000000	
2.519407	617.895634	575.744111	18.395634	10.244111	338.399349	104.941803	21.055668	1.000000	1.000000	1.000000	
2.601739	621.824812	582.976286	22.324812	17.476286	498.397250	305.420562	28.351681	1.000000	1.000000	1.000000	
2.698241	625.753991	589.660901	26.253991	24.160901	689.272039	583.749127	35.679422	1.000000	1.000000	1.000000	
2.801742	629.499089	594.485996	29.999089	28.985996	899.945364	840.187956	41.714905	1.000000	1.000000	1.000000	
2.901600	633.183348	598.640291	33.683348	33.140291	1134.567924	1098.278883	47.253008	1.000000	1.000000	1.000000	
2.998365	636.928446	602.793026	37.428446	37.293026	1400.888596	1390.769789	52.836147	1.000000	1.000000	1.000000	
3.101896	640.673545	606.243761	41.173545	40.743761	1695.260794	1660.054067	57.925080	1.000000	1.000000	1.000000	
3.201780	644.357803	608.959736	44.857803	43.459736	2012.222518	1888.748667	62.457755	1.000000	1.000000	1.000000	
3.298177	648.102902	611.706911	48.602902	46.206911	2362.242062	2135.078646	67.062066	1.000000	1.000000	1.000000	
3.401953	651.848000	614.422886	52.348000	48.922886	2740.313132	2393.448805	71.650275	1.000000	1.000000	1.000000	
3.518570	655.593099	616.741061	56.093099	51.241061	3146.435727	2625.646372	75.974220	1.000000	1.000000	1.000000	
3.598304	658.695477	618.173156	59.195477	52.673156	3504.104524	2774.461411	79.237402	1.000000	1.000000	1.000000	
3.701956	661.644976	619.237092	62.144976	53.737092	3861.998006	2887.675006	82.156394	1.000000	1.000000	1.000000	
3.801890	664.472794	619.812747	64.972794	54.312747	4221.463984	2949.874444	84.683755	1.000000	1.000000	1.000000	
3.921842	667.361453	620.235522	67.861453	54.735522	4605.176758	2995.977334	87.184598	1.000000	1.000000	1.000000	
3.998240	670.310951	620.719137	70.810951	55.219137	5014.190802	3049.153064	89.796124	1.000000	1.000000	1.000000	
4.104886	673.138770	621.202752	73.638770	55.702752	5422.668392	3102.796562	92.333444	1.000000	1.000000	1.000000	
4.198234	676.027428	621.625527	76.527428	56.125527	5856.447252	3150.074771	94.902698	1.000000	1.000000	1.000000	
4.298313	678.855247	622.201182	79.355247	56.701182	6297.255160	3215.024038	97.530914	1.000000	1.000000	1.000000	
4.402370	681.683065	622.684797	82.183065	57.184797	6754.056183	3270.101014	100.120713	1.000000	1.000000	1.000000	
4.497621	684.571724	623.107572	85.071724	57.607572	7237.198146	3318.632367	102.741571	1.000000	1.000000	1.000000	
4.613436	687.521222	623.591187	88.021222	58.091187	7747.735526	3374.586031	105.462418	1.000000	1.000000	1.000000	
4.698318	690.349041	624.104442	90.849041	58.604442	8253.548160	3434.480655	108.111187	1.000000	1.000000	1.000000	
4.801980	693.237699	624.588057	93.737699	59.088057	8786.756210	3491.398522	110.806835	1.000000	1.000000	1.000000	
4.898206	695.973477	625.071672	96.473477	59.571672	9307.131853	3548.784156	113.383932	1.000000	1.000000	1.000000	
5.001785	698.770096	625.555288	99.270096	60.055288	9854.551948	3606.637557	116.022366	1.000000	1.000000	1.000000	
5.098728	701.505874	626.038903	102.005874	60.538903	10405.198416	3664.958726	118.617693	1.000000	1.000000	1.000000	
5.201905	704.027933	626.522518	104.527933	61.022518	10926.088756	3723.747661	121.036509	1.000000	1.000000	1.000000	
5.301573	705.815231	626.945293	106.315231	61.445293	11302.928423	3775.523999	122.794350	1.000000	1.000000	1.000000	
5.398688	701.694814	621.934856	102.194814	56.434856	10443.779966	3184.892924	116.741907	1.000000	1.000000	1.000000	
5.501719	697.513556	617.016458	98.013556	51.516458	9606.657200	2653.945489	110.727606	1.000000	1.000000	1.000000	
5.637462	693.332299	611.945181	93.832299	46.445181	8804.500264	2157.154864	104.697923	1.000000	1.000000	1.000000	
5.698437	689.151041	606.934744	89.651041	41.434744	8037.309158	1716.838021	98.763086	1.000000	1.000000	1.000000	
5.798304	684.938583	601.863467	85.438583	36.363467	7299.751541	1322.301730	92.855012	1.000000	1.000000	1.000000	
5.901753	680.665286	596.853030	81.165286	31.353030	6587.803629	983.012479	87.010437	1.000000	1.000000	1.000000	
5.998138	676.484028	591.842593	76.984028	26.342593	5926.540609	693.932189	81.366288	1.000000	1.000000	1.000000	
6.112913	672.210731	586.832156	72.710731	21.332156	5286.850357	455.060859	75.775400	1.000000	1.000000	1.000000	
6.201592	667.998273	581.851358	68.498273	16.351358	4692.013418	267.366921	70.422868	1.000000	1.000000	1.000000	
6.300595	663.785816	576.840921	64.285816	11.340921	4132.666077	128.616494	65.278500	1.000000	1.000000	1.000000	
6.397174	659.604558	571.769644	60.104558	6.269644	3612.557884	39.308437	60.430674	1.000000	1.000000	1.000000	
6.507335	655.392100	566.698367	55.892100	1.198367	3123.926881	1.436083	55.904946	1.000000	1.000000	1.000000	
6.600576	651.179643	562.176210	51.679643	-3.323790	2670.785476	11.047582	51.786418	1.000000	1.000000	1.000000	
6.697126	646.998385	559.795933	47.498385	-5.704067	2256.096594	32.536385	47.839659	1.000000	1.000000	1.000000	
6.800681	642.817128	557.905495	43.317128	-7.594505	1876.373542	57.676499	43.977836	1.000000	1.000000	1.000000	
6.897233	638.635870	556.167938	39.135870	-9.332062	1531.616321	87.087375	40.233117	1.000000	1.000000	1.000000	
7.000740	634.454612	554.673741	34.954612	-10.826259	1221.824929	117.207880	36.592797	1.000000	1.000000	1.000000	
7.100827	630.395035	553.578904	30.895035	-11.921096	954.503177	142.112530	33.115188	1.000000	1.000000	1.000000	
7.197296	626.397857	553.214147	26.897857	-12.285853	723.494724	150.942187	29.570879	1.000000	1.000000	1.000000	
7.300863	622.400680	552.911790	22.900680	-12.588210	524.441129	158.463038	26.132435	1.000000	1.000000	1.000000	
7.400730	618.403502	552.547033	18.903502	-12.952967	357.342391	167.779366	22.915535	1.000000	1.000000	1.000000	
7.497061	614.406324	552.182275	14.906324	-13.317725	222.198510	177.361788	19.989004	1.000000	1.000000	1.000000	
7.600687	610.409147	551.817518	10.909147	-13.682482	119.009486	187.210307	17.499137	1.000000	1.000000	1.000000	
7.700959	606.411969	551.452761	6.911969	-14.047239	47.775320	197.324921	15.655678	1.000000	1.000000	1.000000	
7.797062	608.553822	548.281469	9.053822	-17.218531	81.971698	296.477804	19.453779	1.000000	1.000000	1.000000	
7.901172	610.758075	545.294257	11.258075	-20.205743	126.744260	408.272041	23.130419	1.000000	1.000000	1.000000	
8.000550	612.962328	542.672085	13.462328	-22.827915	181.234283	521.113690	26.501848	1.000000	1.000000	1.000000	
8.103147	615.166581	540.171593	15.666581	-25.328407	245.441770	641.528184	29.782041	1.000000	1.000000	1.000000	
8.197219	617.370834	537.792781	17.870834	-27.707219	319.366719	767.689962	32.970543	1.000000	1.000000	1.000000	
8.300713	619.512687	535.413969	20.012687	-30.086031	400.507653	905.169233	36.134151	1.000000	1.000000	1.000000	
8.397443	621.716940	532.974318	22.216940	-32.525682	493.592436	1057.920020	39.389243	1.000000	1.000000	1.000000	
8.501191	624.011673	530.534666	24.511673	-34.965334	600.822127	1222.574611	42.701250	1.000000	1.000000	1.000000	
8.600650	626.153526	527.851654	26.653526	-37.648346	710.410464	1417.397983	46.128174	1.000000	1.000000	1.000000	
8.697219	628.295379	524.011122	28.795379	-41.488878	829.173868	1721.327022	50.502484	1.000000	1.000000	1.000000	
8.800766	630.407592	519.925670	30.907592	-45.574330	955.279261	2077.019576	55.066313	1.000000	1.000000	1.000000	
8.900685	632.549445	514.983778	33.049445	-50.516222	1092.265833	2551.888702	60.366833	1.000000	1.000000	1.000000	
8.997168	634.538418	508.358646	35.038418	-57.141354	1227.690755	3265.134349	67.028539	1.000000	1.000000	1.000000	
9.100771	636.527391	501.090794	37.027391	-64.409206	1371.027704	4148.545824	74.293832	1.000000	1.000000	1.000000	
9.200552	638.424324	493.670062	38.924324	-71.829938	1515.103020	5159.539991	81.698488	1.000000	1.000000	1.000000	
9.300484	640.168377	486.219690	40.668377	-79.280310	1653.916910	6285.367542	89.102662	1.000000	1.000000	1.000000	
9.397227	641.851590	478.798958	42.351590	-86.701042	1793.657198	7517.070661	96.492113	1.000000	1.000000	1.000000	
9.499832	642.892083	471.440626	43.392083	-94.059374	1882.872890	8847.165801	103.585900	1.000000	1.000000	1.000000	
9.597179	643.932576	464.019894	44.432576	-101.480106	1974.253833	10298.211862	110.781161	1.000000	1.000000	1.000000	
9.700769	644.606469	456.661562	45.106469	-108.838438	2034.593569	11845.805517	117.815106	1.000000	1.000000	1.000000	
9.800913	645.127482	449.303230	45.627482	-116.196770	2081.867137	13501.689271	124.834116	1.000000	1.000000	1.000000	
9.897185	645.587655	441.944898	46.087655	-123.555102	2124.071966	15265.863122	131.870903	1.000000	1.000000	1.000000	
10.000684	646.047828	434.524166	46.547828	-130.975834	2166.700315	17154.668961	139.001328	1.000000	1.000000	1.000000	
10.103546	646.508001	427.165835	47.008001	-138.334165	2209.752181	19136.341328	146.103024	1.000000	1.000000	1.000000	
10.197753	646.968174	419.807503	47.468174	-145.692497	2253.227566	21226.303793	153.230321	1.000000	1.000000	1.000000	
10.300947	647.398707	412.386771	47.898707	-153.113229	2294.286155	23443.660993	160.430506	1.000000	0.000000	0.000000	
10.401343	647.858880	408.000000	48.358880	-157.500000	2338.581298	24806.250000	164.756885	1.000000	0.000000	0.000000	
10.497378	648.289413	408.812572	48.789413	-156.687428	2380.406844	24550.950112	164.107760	1.000000	0.000000	0.000000	
10.600696	648.749586	410.052584	49.249586	-155.447416	2425.521744	24163.899179	163.062629	1.000000	0.000000	0.000000	
10.699805	649.332999	413.403276	49.832999	-152.096724	2483.327812	23133.413507	160.052308	1.000000	0.000000	0.000000	
10.797650	652.593780	416.440042	53.093780	-149.059958	2818.949513	22218.871019	158.233437	1.000000	0.000000	0.000000	
10.900749	655.884201	419.478369	56.384201	-146.021631	3179.178178	21322.316842	156.529534	1.000000	1.000000	1.000000	
11.000735	659.174623	422.944135	59.674623	-142.555865	3561.060586	20322.174656	154.542018	1.000000	1.000000	1.000000	
11.097280	662.373004	426.957461	62.873004	-138.542539	3953.014602	19194.035016	152.141545	1.000000	1.000000	1.000000	
11.200808	665.663425	431.033188	66.163425	-134.466812	4377.598794	18081.323602	149.863012	1.000000	1.000000	1.000000	
11.336212	668.924206	435.230594	69.424206	-130.269406	4819.720383	16970.118110	147.613815	1.000000	1.000000	1.000000	
11.397954	672.184987	439.428000	72.684987	-126.072000	5283.107359	15894.149059	145.524075	1.000000	1.000000	1.000000	
11.497254	675.292888	443.625407	75.792888	-121.874593	5744.561917	14853.416448	143.519958	1.000000	1.000000	1.000000	
11.602230	678.400789	447.761973	78.900789	-117.738027	6225.334573	13862.242940	141.730651	1.000000	1.000000	1.000000	
11.701133	681.508691	450.798740	82.008691	-114.701260	6725.425328	13156.379127	141.002853	1.000000	1.000000	1.000000	
11.797200	684.616592	452.582826	85.116592	-112.917174	7244.834183	12750.288178	141.404110	1.000000	1.000000	1.000000	
11.900674	687.814973	454.274872	88.314973	-111.225128	7799.534427	12371.029008	142.023109	1.000000	1.000000	1.000000	
11.996989	690.922874	455.966919	91.422874	-109.533081	8358.141884	11997.495879	142.673185	1.000000	1.000000	1.000000	
12.103262	694.183655	457.658965	94.683655	-107.841035	8964.994543	11629.688792	143.508478	1.000000	1.000000	1.000000	
12.200559	697.382036	459.351012	97.882036	-106.148988	9580.893018	11267.607747	144.390099	1.000000	1.000000	1.000000	
12.314172	700.519577	461.043058	101.019577	-104.456942	10204.955012	10911.252745	145.314169	1.000000	1.000000	1.000000	
12.397043	703.627479	462.795944	104.127479	-102.704056	10842.531779	10548.123053	146.255444	1.000000	1.000000	1.000000	
12.500415	706.765020	464.487991	107.265020	-101.012009	11505.784438	10203.426022	147.340458	1.000000	1.000000	1.000000	
12.597074	709.902561	466.180037	110.402561	-99.319963	12188.725425	9864.455033	148.503133	1.000000	1.000000	1.000000	
12.700461	713.040102	467.872083	113.540102	-97.627917	12891.354740	9531.210086	149.741660	1.000000	1.000000	1.000000	
12.800393	716.148003	469.564130	116.648003	-95.935870	13606.756613	9203.691181	151.031281	1.000000	1.000000	1.000000	
12.937162	719.346384	471.256176	119.846384	-94.243824	14363.155799	8881.898318	152.463288	1.000000	1.000000	1.000000	
12.997074	722.454285	472.948223	122.954285	-92.551777	15117.756275	8565.831497	153.894730	1.000000	1.000000	1.000000	
13.100791	725.652666	474.640269	126.152666	-90.859731	15914.495250	8255.490717	155.466993	1.000000	1.000000	1.000000	
13.197092	728.790208	476.332315	129.290208	-89.167685	16715.957774	7950.875980	157.056785	1.000000	1.000000	1.000000	
13.302141	731.348989	478.024362	131.848989	-87.475638	17384.155823	7651.987285	158.228136	1.000000	1.000000	1.000000	
13.400678	732.446050	479.808448	132.946050	-85.691552	17674.652168	7343.042059	158.169827	1.000000	1.000000	1.000000	
13.501006	733.238911	481.561335	133.738911	-83.938665	17886.096309	7045.699561	157.898055	1.000000	1.000000	1.000000	
13.597485	732.782212	483.253381	133.282212	-82.246619	17764.148065	6764.506351	156.616265	1.000000	1.000000	1.000000	
13.701061	730.314673	484.945427	130.814673	-80.554573	17112.478736	6489.039184	153.627855	1.000000	1.000000	1.000000	
13.797242	727.633414	486.729514	128.133414	-78.770486	16418.171880	6204.789515	150.409313	1.000000	1.000000	1.000000	
13.903888	726.371358	484.803837	126.871358	-80.696163	16096.341386	6511.870707	150.360274	1.000000	1.000000	1.000000	
14.001090	724.956421	482.817321	125.456421	-82.682679	15739.313539	6836.425486	150.252251	1.000000	1.000000	1.000000	
14.098256	723.572684	480.830804	124.072684	-84.669196	15394.030946	7168.872762	150.209533	1.000000	1.000000	1.000000	
14.197486	722.310627	478.813087	122.810627	-86.686913	15082.450195	7514.620823	150.323222	1.000000	1.000000	1.000000	
14.300689	720.987731	476.826571	121.487731	-88.673429	14759.268691	7862.977050	150.406934	1.000000	1.000000	1.000000	
14.400584	719.603994	474.840054	120.103994	-90.659946	14424.969343	8219.225772	150.479883	1.000000	1.000000	1.000000	
14.497136	718.281097	472.822338	118.781097	-92.677662	14108.949033	8589.149104	150.658880	1.000000	1.000000	1.000000	
14.600570	716.897360	470.835821	117.397360	-94.664179	13782.140221	8961.306778	150.809307	1.000000	1.000000	1.000000	
14.697038	715.574464	468.818104	116.074464	-96.681896	13473.281104	9347.388925	151.065119	1.000000	1.000000	1.000000	
14.800573	714.190727	466.831588	114.690727	-98.668412	13153.962829	9735.455550	151.292493	1.000000	1.000000	1.000000	
14.900577	712.806990	464.845071	113.306990	-100.654929	12838.474009	10131.414671	151.558202	1.000000	1.000000	1.000000	
14.997836	711.423253	462.827355	111.923253	-102.672645	12526.814643	10541.672088	151.883135	1.000000	1.000000	1.000000	
15.100819	710.039517	460.840838	110.539517	-104.659162	12218.984733	10953.540161	152.225244	1.000000	1.000000	1.000000	
15.200632	708.716620	458.823122	109.216620	-106.676878	11928.270054	11379.956393	152.670319	1.000000	1.000000	1.000000	
15.297087	707.301683	456.836605	107.801683	-108.663395	11621.202881	11807.733417	153.065137	1.000000	1.000000	1.000000	
15.400821	697.178232	453.206586	97.678232	-112.293414	9541.037070	12609.810818	148.831609	1.000000	1.000000	1.000000	
15.519981	687.146822	449.576567	87.646822	-115.923433	7681.965327	13438.242294	145.327931	1.000000	1.000000	1.000000	
15.699006	677.115411	445.946548	77.615411	-119.553452	6024.151987	14293.027845	142.538345	1.000000	1.000000	1.000000	
15.704089	667.084000	442.316529	67.584000	-123.183471	4567.597053	15174.167471	140.505390	1.000000	1.000000	1.000000	
15.801078	657.205469	438.747350	57.705469	-126.752650	3329.921175	16066.234208	139.270081	1.000000	1.000000	1.000000	
15.897032	650.952378	435.820891	51.452378	-129.679109	2647.347244	16816.671220	139.513506	1.000000	1.000000	1.000000	
16.000684	645.795968	433.597992	46.295968	-131.902008	2143.316619	17398.139605	139.790759	1.000000	1.000000	1.000000	
16.103092	640.578717	432.167573	41.078717	-133.332427	1687.460978	17777.535963	139.517013	1.000000	1.000000	1.000000	
16.197802	635.422306	430.858835	35.922306	-134.641165	1290.412073	18128.243437	139.350836	1.000000	1.000000	1.000000	
16.300687	630.205055	429.610936	30.705055	-135.889064	942.800420	18465.837824	139.314889	1.000000	1.000000	1.000000	
16.400687	624.987804	428.486277	25.487804	-137.013723	649.628178	18772.760384	139.364230	1.000000	1.000000	1.000000	
16.500638	619.770554	427.300778	20.270554	-138.199222	410.895348	19099.025039	139.677917	1.000000	1.000000	1.000000	
