AF-MATB V. 3.03
Programmed using MATLAB 7.5.0 and other Custom MATLAB Functions.

William Daniel Miller, Jr.
Air Force Research Laboratory
711th Human Performance Wing
Human Effectiveness Directorate
Applied Neuroscience Branch

RMS Target Value is:	2500.000000	
Main Tank Automation Lower Limit is:	2350.000000	
Main Tank Automation Upper Limit is:	2650.000000	


Event Time	Tank A Value	Tank B Value	Tank A Difference	Tank B Difference	Tank A Deviation	Tank B Deviation	Euclidian Distance From Target	Tank A In Range?	Tank B In Range?	Both In Range?
0.096620	2499.601099	2499.601099	-0.398901	-0.398901	0.159122	0.159122	0.564131	1.000000	1.000000	1.000000	
0.107624	2496.526595	2496.526595	-3.473405	-3.473405	12.064543	12.064543	4.912137	1.000000	1.000000	1.000000	
0.202080	2493.400766	2493.400766	-6.599234	-6.599234	43.549895	43.549895	9.332727	1.000000	1.000000	1.000000	
0.298986	2490.101245	2490.101245	-9.898755	-9.898755	97.985359	97.985359	13.998954	1.000000	1.000000	1.000000	
0.398831	2486.768854	2486.768854	-13.231146	-13.231146	175.063216	175.063216	18.711666	1.000000	1.000000	1.000000	
0.498677	2483.433363	2483.433363	-16.566637	-16.566637	274.453455	274.453455	23.428762	1.000000	1.000000	1.000000	
0.598590	2480.104010	2480.104010	-19.895990	-19.895990	395.850431	395.850431	28.137179	1.000000	1.000000	1.000000	
0.698586	2476.775020	2476.775020	-23.224980	-23.224980	539.399709	539.399709	32.845082	1.000000	1.000000	1.000000	
0.798386	2473.442480	2473.442480	-26.557520	-26.557520	705.301881	705.301881	37.558005	1.000000	1.000000	1.000000	
0.901670	2470.072965	2470.072965	-29.927035	-29.927035	895.627448	895.627448	42.323219	1.000000	1.000000	1.000000	
0.998534	2466.766258	2466.766258	-33.233742	-33.233742	1104.481598	1104.481598	46.999608	1.000000	1.000000	1.000000	
1.101680	2463.470651	2463.470651	-36.529349	-36.529349	1334.393363	1334.393363	51.660301	1.000000	1.000000	1.000000	
1.198442	2460.105733	2460.105733	-39.894267	-39.894267	1591.552512	1591.552512	56.419013	1.000000	1.000000	1.000000	
1.301368	2456.745435	2456.745435	-43.254565	-43.254565	1870.957372	1870.957372	61.171192	1.000000	1.000000	1.000000	
1.398486	2453.438087	2453.438087	-46.561913	-46.561913	2168.011721	2168.011721	65.848489	1.000000	1.000000	1.000000	
1.498339	2450.107836	2450.107836	-49.892164	-49.892164	2489.228076	2489.228076	70.558176	1.000000	1.000000	1.000000	
1.598427	2446.775509	2446.775509	-53.224491	-53.224491	2832.846396	2832.846396	75.270796	1.000000	1.000000	1.000000	
1.701902	2443.405673	2443.405673	-56.594327	-56.594327	3202.917794	3202.917794	80.036464	1.000000	1.000000	1.000000	
1.798696	2440.104955	2440.104955	-59.895045	-59.895045	3587.416426	3587.416426	84.704385	1.000000	1.000000	1.000000	
1.898310	2436.777547	2436.777547	-63.222453	-63.222453	3997.078505	3997.078505	89.410050	1.000000	1.000000	1.000000	
2.002038	2433.402814	2433.402814	-66.597186	-66.597186	4435.185148	4435.185148	94.182643	1.000000	1.000000	1.000000	
2.135089	2429.067324	2429.067324	-70.932676	-70.932676	5031.444554	5031.444554	100.313953	1.000000	1.000000	1.000000	
2.198669	2426.771972	2426.771972	-73.228028	-73.228028	5362.344040	5362.344040	103.560070	1.000000	1.000000	1.000000	
2.297938	2423.467426	2423.467426	-76.532574	-76.532574	5857.234920	5857.234920	108.233404	1.000000	1.000000	1.000000	
2.402535	2420.065191	2420.065191	-79.934809	-79.934809	6389.573684	6389.573684	113.044891	1.000000	1.000000	1.000000	
2.498710	2416.772856	2416.772856	-83.227144	-83.227144	6926.757579	6926.757579	117.700956	1.000000	1.000000	1.000000	
2.602376	2413.398144	2413.398144	-86.601856	-86.601856	7499.881513	7499.881513	122.473520	1.000000	1.000000	1.000000	
2.733523	2408.936287	2408.936287	-91.063713	-91.063713	8292.599765	8292.599765	128.783537	1.000000	1.000000	1.000000	
2.798231	2406.777631	2406.777631	-93.222369	-93.222369	8690.410108	8690.410108	131.836339	1.000000	1.000000	1.000000	
2.898209	2403.445775	2403.445775	-96.554225	-96.554225	9322.718316	9322.718316	136.548294	1.000000	1.000000	1.000000	
2.998458	2400.103612	2400.103612	-99.896388	-99.896388	9979.288352	9979.288352	141.274827	1.000000	1.000000	1.000000	
3.098420	2396.771457	2396.771457	-103.228543	-103.228543	10656.132107	10656.132107	145.987206	1.000000	1.000000	1.000000	
3.198356	2393.440221	2393.440221	-106.559779	-106.559779	11354.986397	11354.986397	150.698284	1.000000	1.000000	1.000000	
3.298330	2390.107639	2390.107639	-109.892361	-109.892361	12076.331056	12076.331056	155.411268	1.000000	1.000000	1.000000	
3.398661	2386.771977	2386.771977	-113.228023	-113.228023	12820.585288	12820.585288	160.128606	1.000000	1.000000	1.000000	
3.498235	2383.443714	2383.443714	-116.556286	-116.556286	13585.367874	13585.367874	164.835481	1.000000	1.000000	1.000000	
3.620635	2380.105849	2380.105849	-119.894151	-119.894151	14374.607486	14374.607486	169.555935	1.000000	1.000000	1.000000	
3.698300	2376.777094	2376.777094	-123.222906	-123.222906	15183.884541	15183.884541	174.263505	1.000000	1.000000	1.000000	
3.801972	2373.403152	2373.403152	-126.596848	-126.596848	16026.761884	16026.761884	179.034979	1.000000	1.000000	1.000000	
3.898252	2370.111651	2370.111651	-129.888349	-129.888349	16870.983294	16870.983294	183.689865	1.000000	1.000000	1.000000	
3.998154	2369.445151	2366.779153	-130.554849	-133.220847	17044.568537	17747.793943	186.527109	1.000000	1.000000	1.000000	
4.104419	2368.770406	2363.405425	-131.229594	-136.594575	17221.206443	18658.077806	189.418279	1.000000	1.000000	1.000000	
4.197367	2368.118055	2360.143671	-131.881945	-139.856329	17392.847493	19559.792785	192.230695	1.000000	1.000000	1.000000	
4.297344	2367.451055	2356.808672	-132.548945	-143.191328	17569.222857	20503.756510	195.122985	1.000000	1.000000	1.000000	
4.404212	2366.754702	2353.326905	-133.245298	-146.673095	17754.309569	21512.996825	198.159800	1.000000	1.000000	1.000000	
4.497310	2366.118330	2350.145046	-133.881670	-149.854954	17924.301635	22456.507241	200.949767	1.000000	1.000000	1.000000	
4.597352	2365.450731	2346.807053	-134.549269	-153.192947	18103.505764	23468.079073	203.891110	1.000000	0.000000	0.000000	
4.699904	2364.783351	2343.470150	-135.216649	-156.529850	18283.542280	24501.593862	206.845682	1.000000	0.000000	0.000000	
4.797392	2364.118070	2340.143748	-135.881930	-159.856252	18463.898870	25554.021335	209.804481	1.000000	0.000000	0.000000	
4.897323	2363.451271	2336.809754	-136.548729	-163.190246	18645.555314	26631.056467	212.783016	1.000000	0.000000	0.000000	
5.000763	2362.777582	2333.441308	-137.222418	-166.558692	18829.991974	27741.797928	215.804981	1.000000	0.000000	0.000000	
5.097361	2362.118080	2330.143797	-137.881920	-169.856203	19011.423877	28851.129667	218.775121	1.000000	0.000000	0.000000	
5.197141	2361.451760	2329.810637	-138.548240	-170.189363	19195.614765	28964.419213	219.453945	1.000000	0.000000	0.000000	
5.297880	2360.782938	2329.476226	-139.217062	-170.523774	19381.390276	29078.357414	220.135748	1.000000	0.000000	0.000000	
5.420585	2360.116400	2329.142957	-139.883600	-170.857043	19567.421453	29192.129045	220.815648	1.000000	0.000000	0.000000	
5.497190	2359.451702	2328.810608	-140.548298	-171.189392	19753.824196	29305.807970	221.494091	1.000000	0.000000	0.000000	
5.600828	2358.776336	2328.472925	-141.223664	-171.527075	19944.123340	29421.537459	222.183845	1.000000	0.000000	0.000000	
5.697560	2358.117146	2328.143330	-141.882854	-171.856670	20130.744305	29534.715012	222.857487	1.000000	0.000000	0.000000	
5.797427	2357.450510	2327.810012	-142.549490	-172.189988	20320.357231	29649.392007	223.539145	1.000000	0.000000	0.000000	
5.900944	2356.777492	2330.165574	-143.222508	-169.834426	20512.686839	28843.732333	222.163046	1.000000	0.000000	0.000000	
5.997212	2356.118285	2332.472798	-143.881715	-167.527202	20701.947963	28065.363277	220.833220	1.000000	0.000000	0.000000	
6.104819	2355.451349	2334.807073	-144.548651	-165.192927	20894.312470	27288.703023	219.506299	1.000000	0.000000	0.000000	
6.197299	2354.784918	2337.139582	-145.215082	-162.860418	21087.420004	26523.515807	218.199303	1.000000	0.000000	0.000000	
6.301076	2354.109125	2339.504859	-145.890875	-160.495141	21284.147517	25758.690263	216.893609	1.000000	0.000000	0.000000	
6.397620	2353.450273	2341.810841	-146.549727	-158.189159	21476.822605	25023.809960	215.640053	1.000000	0.000000	0.000000	
6.500993	2352.776780	2344.168065	-147.223220	-155.831935	21674.676462	24283.592049	214.378797	1.000000	0.000000	0.000000	
6.597310	2352.117915	2346.474092	-147.882085	-153.525908	21869.110981	23570.204494	213.164996	1.000000	0.000000	0.000000	
6.697598	2351.449128	2348.814849	-148.550872	-151.185151	22067.361686	22856.950003	211.953560	1.000000	0.000000	0.000000	
6.797232	2353.774271	2351.139992	-146.225729	-148.860008	21381.963818	22159.301982	208.665440	1.000000	1.000000	1.000000	
6.900588	2356.131120	2353.496841	-143.868880	-146.503159	20698.254548	21463.175515	205.332487	1.000000	1.000000	1.000000	
6.997518	2358.443734	2355.809455	-141.556266	-144.190545	20038.176437	20790.913265	202.062094	1.000000	1.000000	1.000000	
7.100566	2360.797574	2358.163295	-139.202426	-141.836705	19377.315296	20117.650778	198.733405	1.000000	1.000000	1.000000	
7.197276	2363.106760	2360.472481	-136.893240	-139.527519	18739.759143	19467.928548	195.467869	1.000000	1.000000	1.000000	
7.297249	2365.441469	2362.807190	-134.558531	-137.192810	18105.998237	18821.867091	192.166244	1.000000	1.000000	1.000000	
7.400770	2367.804127	2365.169848	-132.195873	-134.830152	17475.748933	18179.169989	188.825101	1.000000	1.000000	1.000000	
7.497389	2370.106800	2367.472521	-129.893200	-132.527479	16872.243284	17563.532569	185.568790	1.000000	1.000000	1.000000	
7.597292	2372.440492	2369.806213	-127.559508	-130.193787	16271.428188	16950.422286	182.268622	1.000000	1.000000	1.000000	
7.700612	2374.799077	2372.164798	-125.200923	-127.835202	15675.271032	16341.838784	178.933255	1.000000	1.000000	1.000000	
7.797206	2377.106946	2374.472667	-122.893054	-125.527333	15102.702801	15757.111415	175.669617	1.000000	1.000000	1.000000	
7.897585	2379.449589	2376.815310	-120.550411	-123.184690	14532.401668	15174.467931	172.356809	1.000000	1.000000	1.000000	
8.000981	2381.801977	2379.167698	-118.198023	-120.832302	13970.772644	14600.445213	169.030228	1.000000	1.000000	1.000000	
8.098989	2384.112031	2381.477752	-115.887969	-118.522248	13430.021383	14047.523299	165.763520	1.000000	1.000000	1.000000	
8.197390	2386.442429	2383.808150	-113.557571	-116.191850	12895.322008	13500.546088	162.468053	1.000000	1.000000	1.000000	
8.304753	2388.801928	2386.167649	-111.198072	-113.832351	12365.011308	12957.804231	159.131441	1.000000	1.000000	1.000000	
8.397340	2391.108044	2388.473765	-108.891956	-111.526235	11857.457982	12438.100995	155.870327	1.000000	1.000000	1.000000	
8.497420	2393.442454	2390.808175	-106.557546	-109.191825	11354.510586	11922.854625	152.569214	1.000000	1.000000	1.000000	
8.601016	2395.802402	2393.168123	-104.197598	-106.831877	10857.139402	11413.049919	149.231998	1.000000	1.000000	1.000000	
8.697579	2398.112426	2395.478147	-101.887574	-104.521853	10381.077716	10924.817738	145.965391	1.000000	1.000000	1.000000	
8.818244	2400.440953	2397.806674	-99.559047	-102.193326	9912.003910	10443.475954	142.672632	1.000000	1.000000	1.000000	
8.897743	2402.779898	2400.145619	-97.220102	-99.854381	9451.748207	9970.897381	139.365152	1.000000	1.000000	1.000000	
8.997385	2405.110775	2402.476496	-94.889225	-97.523504	9003.965034	9510.833848	136.069096	1.000000	1.000000	1.000000	
9.097568	2407.445484	2404.811205	-92.554516	-95.188795	8566.338435	9060.906699	132.767636	1.000000	1.000000	1.000000	
9.197298	2409.772978	2407.138699	-90.227022	-92.861301	8140.915566	8623.221295	129.476395	1.000000	1.000000	1.000000	
9.297552	2412.113480	2409.479201	-87.886520	-90.520799	7724.040404	8194.015061	126.166776	1.000000	1.000000	1.000000	
9.397420	2414.442246	2411.807967	-85.557754	-88.192033	7320.129264	7777.834681	122.873772	1.000000	1.000000	1.000000	
9.501457	2416.870217	2414.235937	-83.129783	-85.764063	6910.560904	7355.474418	119.440510	1.000000	1.000000	1.000000	
9.597512	2419.106649	2416.472370	-80.893351	-83.527630	6543.734191	6976.864930	116.278111	1.000000	1.000000	1.000000	
9.697385	2421.441328	2418.807049	-78.558672	-81.192951	6171.464885	6592.295231	112.976812	1.000000	1.000000	1.000000	
9.801018	2423.804645	2421.170366	-76.195355	-78.829634	5805.732185	6214.111263	109.635047	1.000000	1.000000	1.000000	
9.897134	2426.105133	2423.470854	-73.894867	-76.529146	5460.451392	5856.710214	106.382149	1.000000	1.000000	1.000000	
9.997211	2428.441159	2425.806880	-71.558841	-74.193120	5120.667692	5504.619023	103.079031	1.000000	1.000000	1.000000	
10.103520	2430.801437	2428.167158	-69.198563	-71.832842	4788.441179	5159.957252	99.741658	1.000000	1.000000	1.000000	
10.197151	2433.106191	2430.471912	-66.893809	-69.528088	4474.781655	4834.154995	96.482831	1.000000	1.000000	1.000000	
10.318161	2435.440900	2432.806621	-64.559100	-67.193379	4167.877360	4514.950149	93.181691	1.000000	1.000000	1.000000	
10.397215	2437.773394	2435.139115	-62.226606	-64.860885	3872.150521	4206.934433	89.883730	1.000000	1.000000	1.000000	
10.500498	2440.135587	2437.501308	-59.864413	-62.498692	3583.747913	3906.086471	86.543829	1.000000	1.000000	1.000000	
10.598216	2442.439593	2439.805314	-57.560407	-60.194686	3313.200408	3623.400177	83.286257	1.000000	1.000000	1.000000	
10.700846	2444.800634	2442.166355	-55.199366	-57.833645	3046.969984	3344.730472	79.948111	1.000000	1.000000	1.000000	
10.798321	2447.127499	2444.493220	-52.872501	-55.506780	2795.501350	3081.002615	76.658359	1.000000	1.000000	1.000000	
10.897439	2449.439679	2446.805400	-50.560321	-53.194600	2556.346088	2829.665500	73.389451	1.000000	1.000000	1.000000	
11.000480	2451.798369	2449.164090	-48.201631	-50.835910	2323.397204	2584.289718	70.054885	1.000000	1.000000	1.000000	
11.097405	2454.109770	2451.475491	-45.890230	-48.524509	2105.913167	2354.627930	66.787282	1.000000	1.000000	1.000000	
11.197321	2456.442384	2453.808105	-43.557616	-46.191895	1897.265933	2133.691188	63.489819	1.000000	1.000000	1.000000	
11.298062	2458.774368	2456.140089	-41.225632	-43.859911	1699.552708	1923.691767	60.193392	1.000000	1.000000	1.000000	
11.413851	2461.162938	2458.528659	-38.837062	-41.471341	1508.317349	1719.872088	56.817158	1.000000	1.000000	1.000000	
11.497072	2463.440778	2460.806498	-36.559222	-39.193502	1336.576750	1536.130561	53.597643	1.000000	1.000000	1.000000	
11.600383	2465.802357	2463.168078	-34.197643	-36.831922	1169.478772	1356.590463	50.260016	1.000000	1.000000	1.000000	
11.697231	2468.106199	2465.471920	-31.893801	-34.528080	1017.214562	1192.188331	47.004286	1.000000	1.000000	1.000000	
11.797229	2470.441102	2467.806823	-29.558898	-32.193177	873.728431	1036.400624	43.705023	1.000000	1.000000	1.000000	
12.029661	2472.797458	2470.163179	-27.202542	-29.836821	739.978312	890.235911	40.375911	1.000000	1.000000	1.000000	
12.038219	2475.971744	2473.337465	-24.028256	-26.662535	577.357087	710.890774	35.892170	1.000000	1.000000	1.000000	
12.099350	2477.489091	2474.854812	-22.510909	-25.145188	506.741033	632.280490	33.749393	1.000000	1.000000	1.000000	
12.203117	2479.850147	2477.215868	-20.149853	-22.784132	406.016593	519.116691	30.416004	1.000000	1.000000	1.000000	
12.300293	2482.157551	2479.523272	-17.842449	-20.476728	318.352992	419.296396	27.159702	1.000000	1.000000	1.000000	
12.399507	2484.491631	2481.857352	-15.508369	-18.142648	240.509504	329.155671	23.867660	1.000000	1.000000	1.000000	
12.498835	2486.804739	2484.170460	-13.195261	-15.829540	174.114915	250.574340	20.607990	1.000000	1.000000	1.000000	
12.599544	2489.152412	2486.518133	-10.847588	-13.481867	117.670171	181.760745	17.304072	1.000000	1.000000	1.000000	
12.699844	2491.501761	2488.867482	-8.498239	-11.132518	72.220063	123.932953	14.005464	1.000000	1.000000	1.000000	
12.799434	2493.822533	2491.188254	-6.177467	-8.811746	38.161093	77.646860	10.761410	1.000000	1.000000	1.000000	
12.902703	2496.181284	2493.547005	-3.818716	-6.452995	14.582593	41.641146	7.498249	1.000000	1.000000	1.000000	
12.999390	2498.487026	2495.852747	-1.512974	-4.147253	2.289089	17.199704	4.414611	1.000000	1.000000	1.000000	
13.102790	2500.845043	2498.210764	0.845043	-1.789236	0.714098	3.201364	1.978753	1.000000	1.000000	1.000000	
13.215722	2503.533831	2500.899552	3.533831	0.899552	12.487965	0.809195	3.646527	1.000000	1.000000	1.000000	
13.299308	2505.482965	2502.848686	5.482965	2.848686	30.062907	8.115013	6.178828	1.000000	1.000000	1.000000	
13.402738	2507.845653	2505.211374	7.845653	5.211374	61.554266	27.158415	9.418741	1.000000	1.000000	1.000000	
13.499939	2510.164075	2507.529796	10.164075	7.529796	103.308414	56.697822	12.649357	1.000000	1.000000	1.000000	
13.602867	2512.486838	2509.852559	12.486838	9.852559	155.921120	97.072916	15.905786	1.000000	1.000000	1.000000	
13.702965	2514.850753	2512.216474	14.850753	12.216474	220.544861	149.242233	19.229849	1.000000	1.000000	1.000000	
13.799444	2517.152244	2514.517965	17.152244	14.517965	294.199477	210.771310	22.471555	1.000000	1.000000	1.000000	
13.898383	2519.467942	2516.833663	19.467942	16.833663	379.000749	283.372195	25.736607	1.000000	1.000000	1.000000	
14.005886	2521.845269	2519.210990	21.845269	19.210990	477.215797	369.062153	29.090857	1.000000	1.000000	1.000000	
14.098587	2524.136402	2521.502123	24.136402	21.502123	582.565883	462.341276	32.325024	1.000000	1.000000	1.000000	
14.199542	2526.487398	2523.853119	26.487398	23.853119	701.582239	568.971273	35.644824	1.000000	1.000000	1.000000	
14.302866	2528.846927	2526.212648	28.846927	26.212648	832.145174	687.102893	38.977533	1.000000	1.000000	1.000000	
14.399508	2531.152669	2528.518390	31.152669	28.518390	970.488800	813.298580	42.234907	1.000000	1.000000	1.000000	
14.499452	2533.488007	2530.853728	33.488007	30.853728	1121.446613	951.952531	45.534593	1.000000	1.000000	1.000000	
14.603998	2535.930678	2533.296399	35.930678	33.296399	1291.013603	1108.650169	48.986363	1.000000	1.000000	1.000000	
14.700490	2538.168607	2535.534328	38.168607	35.534328	1456.842598	1262.688500	52.149124	1.000000	1.000000	1.000000	
14.799504	2540.491131	2537.856852	40.491131	37.856852	1639.531705	1433.141256	55.431696	1.000000	1.000000	1.000000	
14.902261	2542.841274	2540.206995	42.841274	40.206995	1835.374760	1616.602448	58.753529	1.000000	1.000000	1.000000	
14.999487	2545.155504	2542.521225	45.155504	42.521225	2039.019586	1808.054616	62.024787	1.000000	1.000000	1.000000	
15.099503	2547.491052	2544.856773	47.491052	44.856773	2255.400005	2012.130069	65.326335	1.000000	1.000000	1.000000	
15.202421	2549.843590	2547.209311	49.843590	47.209311	2484.383449	2228.719029	68.652039	1.000000	1.000000	1.000000	
15.299065	2552.151353	2549.517074	52.151353	49.517074	2719.763659	2451.940654	71.914563	1.000000	1.000000	1.000000	
15.406232	2554.489865	2551.855586	54.489865	51.855586	2969.145360	2689.001771	75.220656	1.000000	1.000000	1.000000	
15.499300	2556.820532	2554.186253	56.820532	54.186253	3228.572853	2936.150009	78.515749	1.000000	1.000000	1.000000	
15.603603	2559.181782	2556.547503	59.181782	56.547503	3502.483362	3197.620134	81.854160	1.000000	1.000000	1.000000	
15.699975	2561.485818	2558.851539	61.485818	58.851539	3780.505868	3463.503691	85.111747	1.000000	1.000000	1.000000	
15.802858	2563.846201	2561.211922	63.846201	61.211922	4076.337327	3746.899340	88.449063	1.000000	1.000000	1.000000	
15.899836	2566.165311	2563.531032	66.165311	63.531032	4377.848401	4036.192045	91.728079	1.000000	1.000000	1.000000	
16.000361	2568.486727	2565.852448	68.486727	65.852448	4690.431787	4336.544917	95.010403	1.000000	1.000000	1.000000	
16.103335	2570.853891	2568.219612	70.853891	68.219612	5020.273801	4653.915393	98.357456	1.000000	1.000000	1.000000	
16.199856	2573.152537	2570.518258	73.152537	70.518258	5351.293741	4972.824778	101.607670	1.000000	1.000000	1.000000	
