AF-MATB V. 3.03
Programmed using MATLAB 7.5.0 and other Custom MATLAB Functions.

William Daniel Miller, Jr.
Air Force Research Laboratory
711th Human Performance Wing
Human Effectiveness Directorate
Applied Neuroscience Branch

RMS Target Value is:	2500.000000	
Main Tank Automation Lower Limit is:	2350.000000	
Main Tank Automation Upper Limit is:	2650.000000	


Event Time	Tank A Value	Tank B Value	Tank A Difference	Tank B Difference	Tank A Deviation	Tank B Deviation	Euclidian Distance From Target	Tank A In Range?	Tank B In Range?	Both In Range?
0.092440	2499.605655	2499.605655	-0.394345	-0.394345	0.155508	0.155508	0.557689	1.000000	1.000000	1.000000	
0.103265	2496.665108	2496.665108	-3.334892	-3.334892	11.121507	11.121507	4.716250	1.000000	1.000000	1.000000	
0.202017	2493.402434	2493.402434	-6.597566	-6.597566	43.527882	43.527882	9.330368	1.000000	1.000000	1.000000	
0.299250	2490.092883	2490.092883	-9.907117	-9.907117	98.150969	98.150969	14.010779	1.000000	1.000000	1.000000	
0.402238	2486.732285	2486.732285	-13.267715	-13.267715	176.032250	176.032250	18.763382	1.000000	1.000000	1.000000	
0.498525	2483.436763	2483.436763	-16.563237	-16.563237	274.340804	274.340804	23.423954	1.000000	1.000000	1.000000	
0.598538	2480.102406	2480.102406	-19.897594	-19.897594	395.914256	395.914256	28.139448	1.000000	1.000000	1.000000	
0.701905	2476.733489	2476.733489	-23.266511	-23.266511	541.330515	541.330515	32.903815	1.000000	1.000000	1.000000	
0.798585	2473.437433	2473.437433	-26.562567	-26.562567	705.569974	705.569974	37.565143	1.000000	1.000000	1.000000	
0.898159	2470.118793	2470.118793	-29.881207	-29.881207	892.886510	892.886510	42.258408	1.000000	1.000000	1.000000	
1.001748	2466.734180	2466.734180	-33.265820	-33.265820	1106.614770	1106.614770	47.044974	1.000000	1.000000	1.000000	
1.104180	2463.438444	2463.438444	-36.561556	-36.561556	1336.747351	1336.747351	51.705848	1.000000	1.000000	1.000000	
1.199075	2460.097158	2460.097158	-39.902842	-39.902842	1592.236814	1592.236814	56.431141	1.000000	1.000000	1.000000	
1.297836	2456.790238	2456.790238	-43.209762	-43.209762	1867.083574	1867.083574	61.107832	1.000000	1.000000	1.000000	
1.401683	2453.405860	2453.405860	-46.594140	-46.594140	2171.013925	2171.013925	65.894065	1.000000	1.000000	1.000000	
1.498803	2450.102019	2450.102019	-49.897981	-49.897981	2489.808537	2489.808537	70.566402	1.000000	1.000000	1.000000	
1.598482	2446.768217	2446.768217	-53.231783	-53.231783	2833.622717	2833.622717	75.281109	1.000000	1.000000	1.000000	
1.697841	2443.462302	2443.462302	-56.537698	-56.537698	3196.511314	3196.511314	79.956380	1.000000	1.000000	1.000000	
1.797491	2440.139407	2440.139407	-59.860593	-59.860593	3583.290632	3583.290632	84.655663	1.000000	1.000000	1.000000	
1.897706	2436.796687	2436.796687	-63.203313	-63.203313	3994.658733	3994.658733	89.382982	1.000000	1.000000	1.000000	
2.001223	2433.434058	2433.434058	-66.565942	-66.565942	4431.024603	4431.024603	94.138458	1.000000	1.000000	1.000000	
2.102568	2430.141573	2430.141573	-69.858427	-69.858427	4880.199821	4880.199821	98.794735	1.000000	1.000000	1.000000	
2.201225	2426.767738	2426.767738	-73.232262	-73.232262	5362.964197	5362.964197	103.566058	1.000000	1.000000	1.000000	
2.296716	2423.495419	2423.495419	-76.504581	-76.504581	5852.950890	5852.950890	108.193816	1.000000	1.000000	1.000000	
2.397712	2420.133367	2420.133367	-79.866633	-79.866633	6378.678993	6378.678993	112.948475	1.000000	1.000000	1.000000	
2.497399	2416.806281	2416.806281	-83.193719	-83.193719	6921.194917	6921.194917	117.653686	1.000000	1.000000	1.000000	
2.601009	2413.436274	2413.436274	-86.563726	-86.563726	7493.278702	7493.278702	122.419596	1.000000	1.000000	1.000000	
2.696650	2410.163292	2410.163292	-89.836708	-89.836708	8070.634112	8070.634112	127.048291	1.000000	1.000000	1.000000	
2.801599	2406.757978	2406.757978	-93.242022	-93.242022	8694.074714	8694.074714	131.864132	1.000000	1.000000	1.000000	
2.897701	2403.469042	2403.469042	-96.530958	-96.530958	9318.225758	9318.225758	136.515389	1.000000	1.000000	1.000000	
3.030117	2399.055004	2399.055004	-100.944996	-100.944996	10189.892277	10189.892277	142.757783	1.000000	1.000000	1.000000	
3.096651	2396.828000	2396.828000	-103.172000	-103.172000	10644.461641	10644.461641	145.907242	1.000000	1.000000	1.000000	
3.197704	2393.467702	2393.467702	-106.532298	-106.532298	11349.130596	11349.130596	150.659421	1.000000	1.000000	1.000000	
3.297937	2390.120812	2390.120812	-109.879188	-109.879188	12073.435925	12073.435925	155.392638	1.000000	1.000000	1.000000	
3.397766	2386.801895	2386.801895	-113.198105	-113.198105	12813.811054	12813.811054	160.086296	1.000000	1.000000	1.000000	
3.500828	2383.434625	2383.434625	-116.565375	-116.565375	13587.486662	13587.486662	164.848334	1.000000	1.000000	1.000000	
3.597875	2380.133564	2380.133564	-119.866436	-119.866436	14367.962429	14367.962429	169.516739	1.000000	1.000000	1.000000	
3.700485	2376.781671	2376.781671	-123.218329	-123.218329	15182.756713	15182.756713	174.257033	1.000000	1.000000	1.000000	
3.797725	2373.469853	2373.469853	-126.530147	-126.530147	16009.878101	16009.878101	178.940650	1.000000	1.000000	1.000000	
3.899073	2370.101920	2370.101920	-129.898080	-129.898080	16873.511100	16873.511100	183.703626	1.000000	1.000000	1.000000	
3.997703	2366.803233	2366.803233	-133.196767	-133.196767	17741.378639	17741.378639	188.368674	1.000000	1.000000	1.000000	
4.103192	2363.386008	2363.386008	-136.613992	-136.613992	18663.382937	18663.382937	193.201361	1.000000	1.000000	1.000000	
4.197841	2360.136485	2360.136485	-139.863515	-139.863515	19561.802704	19561.802704	197.796879	1.000000	1.000000	1.000000	
4.298020	2356.788548	2356.788548	-143.211452	-143.211452	20509.519964	20509.519964	202.531578	1.000000	1.000000	1.000000	
4.401092	2353.438002	2353.438002	-146.561998	-146.561998	21480.419350	21480.419350	207.269966	1.000000	1.000000	1.000000	
4.497588	2350.134311	2350.134311	-149.865689	-149.865689	22459.724872	22459.724872	211.942091	1.000000	1.000000	1.000000	
4.600988	2346.767533	2346.767533	-153.232467	-153.232467	23480.189032	23480.189032	216.703433	0.000000	0.000000	0.000000	
4.697725	2343.468033	2343.468033	-156.531967	-156.531967	24502.256660	24502.256660	221.369631	0.000000	0.000000	0.000000	
4.797780	2342.802877	2340.142251	-157.197123	-159.857749	24710.935584	25554.499938	224.199544	0.000000	0.000000	0.000000	
4.898059	2342.132220	2336.788967	-157.867780	-163.211033	24922.235985	26637.841220	227.068442	0.000000	0.000000	0.000000	
5.000688	2341.462307	2333.439405	-158.537693	-166.560595	25134.199976	27742.431952	229.949194	0.000000	0.000000	0.000000	
5.097360	2340.804760	2330.151667	-159.195240	-169.848333	25343.124483	28848.456260	232.790852	0.000000	0.000000	0.000000	
5.200861	2340.127709	2326.766412	-159.872291	-173.233588	25559.149460	30009.875971	235.730833	0.000000	0.000000	0.000000	
5.297462	2339.468498	2323.470356	-160.531502	-176.529644	25770.363265	31162.715370	238.606535	0.000000	0.000000	0.000000	
5.400825	2338.794701	2320.101375	-161.205299	-179.898625	25987.148269	32363.515272	241.558820	0.000000	0.000000	0.000000	
5.500829	2338.128155	2316.768643	-161.871845	-183.231357	26202.494202	33573.730332	244.491768	0.000000	0.000000	0.000000	
5.597302	2337.469508	2313.475409	-162.530492	-186.524591	26416.160744	34791.423084	247.401665	0.000000	0.000000	0.000000	
5.696733	2336.806298	2310.159357	-163.193702	-189.840643	26632.184407	36039.469714	250.343073	0.000000	0.000000	0.000000	
5.797671	2336.135290	2306.804320	-163.864710	-193.195680	26851.643041	37324.570867	253.330247	0.000000	0.000000	0.000000	
5.898245	2335.464189	2303.448812	-164.535811	-196.551188	27072.033142	38632.369516	256.328700	0.000000	0.000000	0.000000	
5.997726	2334.802510	2300.140416	-165.197490	-199.859584	27290.210803	39943.853289	259.295322	0.000000	0.000000	0.000000	
6.120857	2334.124937	2296.752552	-165.875063	-203.247448	27514.536545	41309.525002	262.343404	0.000000	0.000000	0.000000	
6.198041	2333.468125	2293.468493	-166.531875	-206.531507	27732.865371	42655.263430	265.307612	0.000000	0.000000	0.000000	
6.297464	2332.802853	2290.142133	-167.197147	-209.857867	27954.885916	44040.324211	268.319232	0.000000	0.000000	0.000000	
6.401002	2332.128788	2286.771805	-167.871212	-213.228195	28180.743959	45466.262931	271.379820	0.000000	0.000000	0.000000	
6.497683	2331.468622	2283.470980	-168.531378	-216.529020	28402.825208	46884.816501	274.385936	0.000000	0.000000	0.000000	
6.597638	2330.803214	2280.143936	-169.196786	-219.856064	28627.552494	48336.688836	277.424298	0.000000	0.000000	0.000000	
6.701106	2330.128100	2276.768369	-169.871900	-223.231631	28856.462322	49832.361135	280.515282	0.000000	0.000000	0.000000	
6.798165	2329.468119	2273.468463	-170.531881	-226.531537	29081.122413	51316.537279	283.544811	0.000000	0.000000	0.000000	
6.897969	2328.798763	2270.121680	-171.201237	-229.878320	29309.863701	52844.041830	286.625026	0.000000	0.000000	0.000000	
7.000934	2328.128221	2266.768974	-171.871779	-233.231026	29539.908314	54396.711452	289.718173	0.000000	0.000000	0.000000	
7.097425	2327.469681	2263.476275	-172.530319	-236.523725	29766.710807	55943.472483	292.763016	0.000000	0.000000	0.000000	
7.200882	2326.794880	2260.102269	-173.205120	-239.897731	30000.013502	57550.921378	295.890072	0.000000	0.000000	0.000000	
7.334995	2326.128235	2256.769045	-173.871765	-243.230955	30231.390521	59161.297640	298.986100	0.000000	0.000000	0.000000	
7.397673	2325.469593	2256.110402	-174.530407	-243.889598	30460.862985	59482.135921	299.904983	0.000000	0.000000	0.000000	
7.497358	2324.802191	2255.443000	-175.197809	-244.557000	30694.272259	59808.126106	300.836165	0.000000	0.000000	0.000000	
7.600880	2324.128091	2254.768901	-175.871909	-245.231099	30930.928278	60138.292155	301.776773	0.000000	0.000000	0.000000	
7.697873	2323.465822	2254.106631	-176.534178	-245.893369	31164.316051	60463.548870	302.700950	0.000000	0.000000	0.000000	
7.797446	2322.802607	2253.443416	-177.197393	-246.556584	31398.916010	60790.148891	303.626522	0.000000	0.000000	0.000000	
7.900749	2322.128157	2252.768966	-177.871843	-247.231034	31638.392634	61123.184196	304.567853	0.000000	0.000000	0.000000	
7.997150	2321.470609	2252.111418	-178.529391	-247.888582	31872.743386	61448.748879	305.485666	0.000000	0.000000	0.000000	
8.097969	2320.805726	2251.446536	-179.194274	-248.553464	32110.587663	61778.824608	306.413793	0.000000	0.000000	0.000000	
8.200809	2320.129005	2250.769814	-179.870995	-249.230186	32353.574894	62115.685566	307.358521	0.000000	0.000000	0.000000	
8.297933	2319.465564	2250.106373	-180.534436	-249.893627	32592.682753	62446.824933	308.284783	0.000000	0.000000	0.000000	
8.397260	2318.803221	2249.444031	-181.196779	-250.555969	32832.272575	62778.293783	309.209583	0.000000	0.000000	0.000000	
8.500679	2318.129921	2248.770731	-181.870079	-251.229269	33076.725478	63116.145768	310.149756	0.000000	0.000000	0.000000	
8.597970	2317.468247	2248.109056	-182.531753	-251.890944	33317.841025	63449.047787	311.073767	0.000000	0.000000	0.000000	
8.697472	2316.801786	2247.442595	-183.198214	-252.557405	33561.585763	63785.242908	312.004533	0.000000	0.000000	0.000000	
8.800774	2316.128990	2246.769800	-183.871010	-253.230200	33808.548202	64125.534418	312.944216	0.000000	0.000000	0.000000	
8.900800	2315.462260	2246.103069	-184.537740	-253.896931	34054.177514	64463.651491	313.875499	0.000000	0.000000	0.000000	
8.997454	2314.802112	2245.442921	-185.197888	-254.557079	34298.257746	64799.306384	314.797656	0.000000	0.000000	0.000000	
9.137320	2310.728566	2248.158618	-189.271434	-251.841382	35823.675701	63424.081484	315.036120	0.000000	0.000000	0.000000	
9.197671	2306.802066	2250.776285	-193.197934	-249.223715	37325.441803	62112.459971	315.337758	0.000000	0.000000	0.000000	
9.300899	2302.755055	2253.474293	-197.244945	-246.525707	38905.568408	60774.924414	315.722177	0.000000	0.000000	0.000000	
9.397407	2302.097234	2252.816471	-197.902766	-247.183529	39165.504977	61099.696850	316.646809	0.000000	0.000000	0.000000	
9.498081	2301.425944	2252.145182	-198.574056	-247.854818	39431.655803	61432.011016	317.590407	0.000000	0.000000	0.000000	
9.597375	2300.763944	2251.483182	-199.236056	-248.516818	39695.006081	61760.609020	318.520981	0.000000	0.000000	0.000000	
9.697175	2300.098475	2250.817713	-199.901525	-249.182287	39960.619633	62091.812177	319.456463	0.000000	0.000000	0.000000	
9.797750	2299.429799	2250.149036	-200.570201	-249.850964	40228.405649	62425.503965	320.396488	0.000000	0.000000	0.000000	
9.898662	2298.757435	2249.476673	-201.242565	-250.523327	40498.569802	62761.937269	321.341729	0.000000	0.000000	0.000000	
10.000703	2298.090389	2248.809626	-201.909611	-251.190374	40767.491211	63096.603836	322.279529	0.000000	0.000000	0.000000	
10.098358	2297.430694	2248.149932	-202.569306	-251.850068	41034.323777	63428.456910	323.207025	0.000000	0.000000	0.000000	
10.197766	2296.763309	2247.482547	-203.236691	-252.517453	41305.152526	63765.064121	324.145363	0.000000	0.000000	0.000000	
10.300883	2296.089107	2246.808344	-203.910893	-253.191656	41579.652416	64106.014430	325.093320	0.000000	0.000000	0.000000	
10.437689	2295.164598	2245.883835	-204.835402	-254.116165	41957.542105	64575.025151	326.393271	0.000000	0.000000	0.000000	
10.497530	2294.762960	2245.482197	-205.237040	-254.517803	42122.242724	64779.311809	326.958032	0.000000	0.000000	0.000000	
10.600512	2294.089732	2244.808970	-205.910268	-255.191030	42399.038298	65122.461688	327.904712	0.000000	0.000000	0.000000	
10.697515	2293.429670	2244.148908	-206.570330	-255.851092	42671.301252	65459.781403	328.832910	0.000000	0.000000	0.000000	
10.797244	2292.763632	2243.482870	-207.236368	-256.517130	42946.912034	65801.037858	329.769541	0.000000	0.000000	0.000000	
10.896400	2292.103014	2242.822252	-207.896986	-257.177748	43221.156795	66140.394181	330.698580	0.000000	0.000000	0.000000	
11.001171	2291.422439	2242.141677	-208.577561	-257.858323	43504.599066	66490.914988	331.655716	0.000000	0.000000	0.000000	
11.096761	2290.766606	2241.485844	-209.233394	-258.514156	43778.613041	66829.568807	332.578084	0.000000	0.000000	0.000000	
11.200934	2290.087400	2240.806637	-209.912600	-259.193363	44063.299765	67181.199168	333.533355	0.000000	0.000000	0.000000	
11.298253	2289.424369	2240.143607	-210.575631	-259.856393	44342.096385	67525.345108	334.465905	0.000000	0.000000	0.000000	
11.397416	2288.761847	2239.481085	-211.238153	-260.518915	44621.557196	67870.105074	335.397767	0.000000	0.000000	0.000000	
11.504795	2288.088881	2238.808119	-211.911119	-261.191881	44906.322420	68221.198888	336.344349	0.000000	0.000000	0.000000	
11.597281	2287.430709	2238.149947	-212.569291	-261.850053	45185.703535	68565.450437	337.270150	0.000000	0.000000	0.000000	
11.697320	2286.763089	2237.482327	-213.236911	-262.517673	45469.980282	68915.528832	338.209268	0.000000	0.000000	0.000000	
11.830161	2285.877031	2236.596268	-214.122969	-263.403732	45848.646063	69381.525872	339.455700	0.000000	0.000000	0.000000	
11.897458	2285.429688	2236.148926	-214.570312	-263.851074	46040.418824	69617.389399	340.085001	0.000000	0.000000	0.000000	
11.997125	2284.764390	2235.483628	-215.235610	-264.516372	46326.367662	69968.910982	341.020936	0.000000	0.000000	0.000000	
12.105134	2284.088610	2234.807847	-215.911390	-265.192153	46617.728469	70326.877761	341.971645	0.000000	0.000000	0.000000	
12.197694	2283.429826	2234.149064	-216.570174	-265.850936	46902.640234	70676.720242	342.898470	0.000000	0.000000	0.000000	
12.297684	2282.761539	2233.480777	-217.238461	-266.519223	47192.549012	71032.496431	343.838691	0.000000	0.000000	0.000000	
12.400851	2282.090283	2232.809521	-217.909717	-267.190479	47484.644633	71390.752020	344.783115	0.000000	0.000000	0.000000	
12.497931	2281.426957	2232.146195	-218.573043	-267.853805	47774.174931	71745.660724	345.716409	0.000000	0.000000	0.000000	
12.597776	2280.763413	2231.482651	-219.236587	-268.517349	48064.680875	72101.566575	346.650036	0.000000	0.000000	0.000000	
12.700776	2280.089925	2230.809163	-219.910075	-269.190837	48360.440951	72463.706671	347.597681	0.000000	0.000000	0.000000	
12.797220	2279.431642	2230.150880	-220.568358	-269.849120	48650.400499	72818.547613	348.523956	0.000000	0.000000	0.000000	
12.897948	2278.760087	2229.479325	-221.239913	-270.520675	48947.099019	73181.435611	349.468932	0.000000	0.000000	0.000000	
12.997423	2278.096415	2228.815653	-221.903585	-271.184347	49241.201081	73540.950225	350.402841	0.000000	0.000000	0.000000	
13.096986	2277.434338	2228.153576	-222.565662	-271.846424	49535.473923	73900.478380	351.334530	0.000000	0.000000	0.000000	
13.200852	2276.755704	2227.474942	-223.244296	-272.525058	49838.015481	74269.907088	352.289544	0.000000	0.000000	0.000000	
13.300642	2276.090219	2226.809457	-223.909781	-273.190543	50135.590155	74633.073054	353.226079	0.000000	0.000000	0.000000	
13.400777	2275.423236	2226.142474	-224.576764	-273.857526	50434.722941	74997.944676	354.164746	0.000000	0.000000	0.000000	
13.497274	2274.764076	2225.483314	-225.235924	-274.516686	50731.221467	75359.411015	355.092428	0.000000	0.000000	0.000000	
13.600998	2274.089155	2224.808393	-225.910845	-275.191607	51035.709885	75730.420673	356.042316	0.000000	0.000000	0.000000	
13.697307	2273.430448	2224.149686	-226.569552	-275.850314	51333.761718	76093.395634	356.969407	0.000000	0.000000	0.000000	
13.800950	2272.755904	2223.475142	-227.244096	-276.524858	51639.879260	76465.997320	357.918813	0.000000	0.000000	0.000000	
13.921488	2271.937941	2222.657178	-228.062059	-277.342822	52012.302923	76919.040680	359.070110	0.000000	0.000000	0.000000	
13.997209	2271.431147	2222.150385	-228.568853	-277.849615	52243.720638	77200.408764	359.783448	0.000000	0.000000	0.000000	
14.103484	2270.755845	2221.475083	-229.244155	-278.524917	52552.882511	77576.129395	360.733991	0.000000	0.000000	0.000000	
14.200840	2270.089688	2220.808926	-229.910312	-279.191074	52858.751596	77947.655956	361.671685	0.000000	0.000000	0.000000	
14.297447	2269.429822	2220.149060	-230.570178	-279.850940	53162.606879	78316.548608	362.600545	0.000000	0.000000	0.000000	
14.401187	2268.755846	2219.475084	-231.244154	-280.524916	53473.858536	78694.228343	363.549291	0.000000	0.000000	0.000000	
14.500897	2268.089865	2218.809102	-231.910135	-281.190898	53782.310914	79068.320912	364.486806	0.000000	0.000000	0.000000	
14.597409	2267.430324	2218.149562	-232.569676	-281.850438	54088.654229	79439.669560	365.415276	0.000000	0.000000	0.000000	
14.701131	2266.755891	2217.475128	-233.244109	-282.524872	54402.814600	79820.303113	366.364733	0.000000	0.000000	0.000000	
14.800880	2266.090221	2216.809459	-233.909779	-283.190541	54713.784781	80196.882713	367.301875	0.000000	0.000000	0.000000	
15.013296	2265.429577	2216.148815	-234.570423	-283.851185	55023.283477	80571.495501	368.231964	0.000000	0.000000	0.000000	
15.019017	2264.631759	2215.350996	-235.368241	-284.649004	55398.209088	81025.055289	369.355201	0.000000	0.000000	0.000000	
15.097930	2264.093614	2214.812852	-235.906386	-285.187148	55651.823027	81331.709589	370.112865	0.000000	0.000000	0.000000	
15.201965	2263.416820	2214.136057	-236.583180	-285.863943	55971.601287	81718.193730	371.065756	0.000000	0.000000	0.000000	
15.297827	2262.760431	2213.479669	-237.239569	-286.520331	56282.613067	82093.900156	371.989937	0.000000	0.000000	0.000000	
15.401842	2262.082978	2212.802216	-237.917022	-287.197784	56604.509324	82482.567214	372.943798	0.000000	0.000000	0.000000	
15.498477	2261.422685	2212.141922	-238.577315	-287.858078	56919.135396	82862.272810	373.873519	0.000000	0.000000	0.000000	
15.598444	2260.756369	2211.475607	-239.243631	-288.524393	57237.514908	83246.325395	374.811740	0.000000	0.000000	0.000000	
15.701541	2260.083493	2210.802730	-239.916507	-289.197270	57559.930523	83635.060748	375.759220	0.000000	0.000000	0.000000	
15.798208	2259.424671	2210.143908	-240.575329	-289.856092	57876.489164	84016.553900	376.686930	0.000000	0.000000	0.000000	
