AF-MATB V. 3.03
Programmed using MATLAB 7.5.0 and other Custom MATLAB Functions.

William Daniel Miller, Jr.
Air Force Research Laboratory
711th Human Performance Wing
Human Effectiveness Directorate
Applied Neuroscience Branch

RMS Center Coordinate (X,Y) is:	599.500000	565.500000	
Tracking Box X-Axis Lower Limit is:	449.500000	
Tracking Box X-Axis Upper Limit is:	749.500000	
Tracking Box Y-Axis Lower Limit is:	417.500000	
Tracking Box Y-Axis Upper Limit is:	717.500000	


Event Time	X Coordinates	Y Coordinates	X-Axis Difference	Y-Axis Difference	X-Axis Deviation	Y-Axis Deviation	Euclidian Distance From Target	X-Axis In Range?	y-Axis In Range?	Both In Range?
0.096326	596.936058	569.165655	-2.563942	3.665655	6.573796	13.437026	4.473346	1.000000	1.000000	1.000000	
0.103296	594.340917	572.801670	-5.159083	7.301670	26.616139	53.314383	8.940387	1.000000	1.000000	1.000000	
0.202111	591.776975	576.437685	-7.723025	10.937685	59.645111	119.632948	13.389476	1.000000	1.000000	1.000000	
0.299292	589.213034	580.073700	-10.286966	14.573700	105.821676	212.392723	17.838565	1.000000	1.000000	1.000000	
0.402332	586.617892	583.739355	-12.882108	18.239355	165.948704	332.674058	22.329863	1.000000	1.000000	1.000000	
0.498563	584.022751	587.375370	-15.477249	21.875370	239.545252	478.531794	26.796960	1.000000	1.000000	1.000000	
0.598575	581.458809	591.011384	-18.041191	25.511384	325.484575	650.830739	31.246045	1.000000	1.000000	1.000000	
0.702000	578.863667	594.647399	-20.636333	29.147399	425.858225	849.570893	35.713150	1.000000	1.000000	1.000000	
0.798623	576.299726	598.221014	-23.200274	32.721014	538.252724	1070.664780	40.111314	1.000000	1.000000	1.000000	
0.898197	573.826264	601.641749	-25.673736	36.141749	659.140710	1306.226041	44.332457	1.000000	1.000000	1.000000	
1.001842	573.953323	604.482164	-25.546677	38.982164	652.632726	1519.609127	46.607315	1.000000	1.000000	1.000000	
1.104219	574.325301	607.138499	-25.174699	41.638499	633.765468	1733.764611	48.657272	1.000000	1.000000	1.000000	
1.199118	574.697279	609.702794	-24.802721	44.202794	615.174947	1953.887003	50.685915	1.000000	1.000000	1.000000	
1.297892	575.069258	612.022169	-24.430742	46.522169	596.861161	2164.312208	52.546868	1.000000	1.000000	1.000000	
1.401780	575.502076	613.639544	-23.997924	48.139544	575.900343	2317.415689	53.789553	1.000000	1.000000	1.000000	
1.498914	575.874055	614.522159	-23.625945	49.022159	558.185291	2403.172059	54.418355	1.000000	1.000000	1.000000	
1.598520	576.275673	614.548334	-23.224327	49.048334	539.369359	2405.739047	54.268853	1.000000	1.000000	1.000000	
1.697893	584.294122	606.727127	-15.205878	41.227127	231.218735	1699.675990	43.941947	1.000000	1.000000	1.000000	
1.797529	592.312570	598.508120	-7.187430	33.008120	51.659146	1089.535984	33.781580	1.000000	1.000000	1.000000	
1.897746	600.270179	590.044193	0.770179	24.544193	0.593176	602.417413	24.556274	1.000000	1.000000	1.000000	
2.001322	608.166947	581.152826	8.666947	15.652826	75.115978	245.010967	17.892092	1.000000	1.000000	1.000000	
2.102603	616.094916	571.985339	16.594916	6.485339	275.391239	42.059625	17.817151	1.000000	1.000000	1.000000	
2.201320	623.991685	562.788212	24.491685	-2.711788	599.842616	7.353792	24.641356	1.000000	1.000000	1.000000	
2.296755	631.919653	553.530245	32.419653	-11.969755	1051.033915	143.275024	34.558775	1.000000	1.000000	1.000000	
2.397752	639.602702	544.241079	40.102702	-21.258921	1608.226692	451.941742	45.389078	1.000000	1.000000	1.000000	
2.497439	644.655590	535.777152	45.155590	-29.722848	2039.027343	883.447716	54.059921	1.000000	1.000000	1.000000	
2.601108	648.819279	528.904425	49.319279	-36.595575	2432.391278	1339.236131	61.413577	1.000000	1.000000	1.000000	
2.696689	652.252888	522.888138	52.752888	-42.611862	2782.867146	1815.770800	67.813258	1.000000	1.000000	1.000000	
2.801700	655.229416	517.881171	55.729416	-47.618829	3105.767824	2267.552885	73.302938	1.000000	1.000000	1.000000	
2.897746	657.870545	513.577764	58.370545	-51.922236	3407.120492	2695.918593	78.121950	1.000000	1.000000	1.000000	
3.030158	660.480473	510.007557	60.980473	-55.492443	3718.618126	3079.411221	82.450163	1.000000	1.000000	1.000000	
3.096692	663.060762	506.713470	63.560762	-58.786530	4039.970453	3455.856089	86.578442	1.000000	1.000000	1.000000	
3.197742	665.641050	503.909223	66.141050	-61.590777	4374.638559	3793.423779	90.377333	1.000000	1.000000	1.000000	
3.297976	668.221339	501.104976	68.721339	-64.395024	4722.622444	4146.719070	94.177181	1.000000	1.000000	1.000000	
3.397828	670.466228	498.757809	70.966228	-66.742191	5036.205468	4454.519999	97.420354	1.000000	1.000000	1.000000	
3.500929	672.193196	496.624363	72.693196	-68.875637	5284.300780	4743.853435	100.140672	1.000000	1.000000	1.000000	
3.597929	673.584765	494.795116	74.084765	-70.704884	5488.552379	4999.180673	102.409634	1.000000	1.000000	1.000000	
3.700587	674.915493	493.179589	75.415493	-72.320411	5687.496646	5230.241887	104.487983	1.000000	1.000000	1.000000	
3.797776	676.185382	491.564062	76.685382	-73.935938	5880.647812	5466.522954	106.523100	1.000000	1.000000	1.000000	
3.899119	677.484911	489.948535	77.984911	-75.551465	6081.646278	5708.023877	108.580248	1.000000	1.000000	1.000000	
3.997744	678.754799	488.364208	79.254799	-77.135792	6281.323191	5949.930407	110.594998	1.000000	1.000000	1.000000	
4.103262	679.659648	486.840721	80.159648	-78.659279	6425.569128	6187.282157	112.306951	1.000000	1.000000	1.000000	
4.197898	679.619136	485.560594	80.119136	-79.939406	6419.076007	6390.308601	113.178552	1.000000	1.000000	1.000000	
4.298060	679.425745	484.341307	79.925745	-81.158693	6388.124701	6586.733403	113.907235	1.000000	1.000000	1.000000	
4.401194	672.584640	481.003336	73.084640	-84.496664	5341.364657	7139.686298	111.718624	1.000000	1.000000	1.000000	
4.497629	665.712336	477.665364	66.212336	-87.834636	4384.073412	7714.923303	109.995440	1.000000	1.000000	1.000000	
4.610286	658.840031	474.327392	59.340031	-91.172608	3521.239308	8312.444418	108.782736	1.000000	1.000000	1.000000	
4.697801	651.967727	471.050260	52.467727	-94.449740	2752.862343	8920.753298	108.044508	1.000000	1.000000	1.000000	
4.797856	645.126622	467.773129	45.626622	-97.726871	2081.788646	9550.541362	107.853280	1.000000	1.000000	1.000000	
4.898115	638.254318	464.435157	38.754318	-101.064843	1501.897130	10214.102479	108.240471	1.000000	1.000000	1.000000	
5.000828	631.382013	461.158025	31.882013	-104.341975	1016.462753	10887.247673	109.104127	1.000000	1.000000	1.000000	
5.097578	624.540908	457.880894	25.040908	-107.619106	627.047096	11581.872051	110.493978	1.000000	1.000000	1.000000	
5.200998	617.760644	454.664602	18.260644	-110.835398	333.451115	12284.485462	112.329589	1.000000	1.000000	1.000000	
5.297518	610.980379	451.509150	11.480379	-113.990850	131.799109	12993.913829	114.567504	1.000000	1.000000	1.000000	
5.401040	604.231315	448.292859	4.731315	-117.207141	22.385339	13737.514010	117.302597	1.000000	1.000000	1.000000	
5.500972	597.968970	445.076567	-1.531030	-120.423433	2.344052	14501.803256	120.433165	1.000000	1.000000	1.000000	
5.597357	592.956186	441.860275	-6.543814	-123.639725	42.821506	15286.781566	123.812774	1.000000	1.000000	1.000000	
5.696859	588.490961	438.614343	-11.009039	-126.885657	121.198938	16099.969844	127.362352	1.000000	1.000000	1.000000	
5.797733	584.453177	435.398052	-15.046823	-130.101948	226.406897	16926.516946	130.969171	1.000000	1.000000	1.000000	
5.898303	580.445032	432.181760	-19.054968	-133.318240	363.091807	17773.753112	134.673104	1.000000	1.000000	1.000000	
5.997817	576.681807	428.965468	-22.818193	-136.534532	520.669913	18641.678343	138.428134	1.000000	1.000000	1.000000	
6.121055	573.740703	425.749177	-25.759297	-139.750823	663.541390	19530.292639	142.105011	1.000000	1.000000	1.000000	
6.198104	570.982118	422.532885	-28.517882	-142.967115	813.269578	20439.595999	145.783626	1.000000	1.000000	1.000000	
6.297521	574.345328	426.507763	-25.154672	-138.992237	632.757516	19318.841915	141.250131	1.000000	1.000000	1.000000	
6.401152	577.892618	430.482641	-21.607382	-135.017359	466.878956	18229.687144	136.735387	1.000000	1.000000	1.000000	
6.497755	581.439908	434.457520	-18.060092	-131.042480	326.166927	17172.131687	132.281135	1.000000	1.000000	1.000000	
6.597693	584.987198	438.402758	-14.512802	-127.097242	210.621429	16153.708989	127.923143	1.000000	1.000000	1.000000	
6.701246	588.534488	442.377636	-10.965512	-123.122364	120.242461	15159.116528	123.609704	1.000000	1.000000	1.000000	
6.798230	592.081778	446.444554	-7.418222	-119.055446	55.030025	14174.199183	119.286333	1.000000	1.000000	1.000000	
6.898027	595.629067	450.633152	-3.870933	-114.866848	14.984119	13194.392684	114.932053	1.000000	1.000000	1.000000	
7.001074	599.176357	454.851391	-0.323643	-110.648609	0.104745	12243.114766	110.649083	1.000000	1.000000	1.000000	
7.097485	602.723647	459.132029	3.223647	-106.367971	10.391901	11314.145299	106.416809	1.000000	1.000000	1.000000	
7.201030	606.270937	463.412667	6.770937	-102.087333	45.845588	10421.823558	102.311628	1.000000	1.000000	1.000000	
7.335049	609.818227	467.630905	10.318227	-97.869095	106.465806	9578.359714	98.411511	1.000000	1.000000	1.000000	
7.397743	613.365517	471.819503	13.865517	-93.680497	192.252554	8776.035439	94.701045	1.000000	1.000000	1.000000	
7.497415	616.912807	476.008102	17.412807	-89.491898	303.205834	8008.799873	91.170202	1.000000	1.000000	1.000000	
7.601023	620.460096	480.196700	20.960096	-85.303300	439.325644	7276.653018	87.840644	1.000000	1.000000	1.000000	
7.697931	624.007386	484.385298	24.507386	-81.114702	600.611985	6579.594872	84.736101	1.000000	1.000000	1.000000	
7.797504	627.554676	488.573896	28.054676	-76.926104	787.064858	5917.625436	81.882173	1.000000	1.000000	1.000000	
7.900895	630.034926	492.792134	30.534926	-72.707866	932.381711	5286.433710	78.859466	1.000000	1.000000	1.000000	
7.997207	631.997256	497.010373	32.497256	-68.489627	1056.071645	4690.829050	75.808315	1.000000	1.000000	1.000000	
8.098030	633.898746	501.228611	34.398746	-64.271389	1183.273715	4130.811458	72.897772	1.000000	1.000000	1.000000	
8.200955	635.647356	505.446849	36.147356	-60.053151	1306.631324	3606.380933	70.092883	1.000000	1.000000	1.000000	
8.297994	637.395966	509.665087	37.895966	-55.834913	1436.104206	3117.537475	67.480676	1.000000	1.000000	1.000000	
8.397319	639.144575	513.883326	39.644575	-51.616674	1571.692362	2664.281084	65.084356	1.000000	1.000000	1.000000	
8.500834	640.893185	518.101564	41.393185	-47.398436	1713.395790	2246.611761	62.928591	1.000000	1.000000	1.000000	
8.598038	642.672995	522.319802	43.172995	-43.180198	1863.907513	1864.529504	61.060929	1.000000	1.000000	1.000000	
8.697533	644.452805	526.538040	44.952805	-38.961960	2020.754682	1518.034315	59.487721	1.000000	1.000000	1.000000	
8.800989	646.232615	530.330398	46.732615	-35.169602	2183.937298	1236.900879	58.487932	1.000000	1.000000	1.000000	
8.900945	648.042065	533.422317	48.542065	-32.077683	2356.332055	1028.977774	58.183415	1.000000	1.000000	1.000000	
8.997513	649.912355	536.483035	50.412355	-29.016965	2541.405503	841.984270	58.166913	1.000000	1.000000	1.000000	
9.137376	651.782645	539.543753	52.282645	-25.956247	2733.474920	673.726759	58.371240	1.000000	1.000000	1.000000	
9.197774	645.365817	542.582589	45.865817	-22.917411	2103.673207	525.207724	51.272614	1.000000	1.000000	1.000000	
9.301044	638.948990	545.682265	39.448990	-19.817735	1556.222836	392.742615	44.147089	1.000000	1.000000	1.000000	
9.397470	632.441683	548.813141	32.941683	-16.686859	1085.154491	278.451256	36.927033	1.000000	1.000000	1.000000	
9.498147	624.959376	551.851977	25.459376	-13.648023	648.179830	186.268524	28.886820	1.000000	1.000000	1.000000	
9.597435	616.898309	554.982853	17.398309	-10.517147	302.701154	110.610373	20.330065	1.000000	1.000000	1.000000	
9.697237	608.806042	558.082529	9.306042	-7.417471	86.602415	55.018869	11.900474	1.000000	1.000000	1.000000	
9.797856	600.713775	561.182206	1.213775	-4.317794	1.473249	18.643349	4.485153	1.000000	1.000000	1.000000	
9.898838	592.652708	564.313082	-6.847292	-1.186918	46.885413	1.408775	6.949402	1.000000	1.000000	1.000000	
10.000852	586.023720	567.412758	-13.476280	1.912758	181.610110	3.658642	13.611346	1.000000	1.000000	1.000000	
10.098422	579.728573	570.543634	-19.771427	5.043634	390.909311	25.438241	20.404596	1.000000	1.000000	1.000000	
10.197835	573.433426	573.643310	-26.066574	8.143310	679.466268	66.313495	27.308969	1.000000	1.000000	1.000000	
10.301033	567.138279	576.742986	-32.361721	11.242986	1047.280978	126.404732	34.259097	1.000000	1.000000	1.000000	
10.437778	560.843132	579.873862	-38.656868	14.373862	1494.353443	206.607908	41.242713	1.000000	1.000000	1.000000	
10.497599	554.579185	582.973538	-44.920815	17.473538	2017.879631	305.324532	48.199628	1.000000	1.000000	1.000000	
10.600658	548.284038	586.104414	-51.215962	20.604414	2623.074787	424.541881	55.205223	1.000000	1.000000	1.000000	
10.697582	541.988891	589.204090	-57.511109	23.704090	3307.527699	561.883892	62.204595	1.000000	1.000000	1.000000	
10.797305	535.664104	592.303766	-63.835896	26.803766	4075.021678	718.441886	69.234844	1.000000	1.000000	1.000000	
10.896466	529.400156	595.403442	-70.099844	29.903442	4913.988071	894.215864	76.211573	1.000000	1.000000	1.000000	
11.001321	529.429796	595.403442	-70.070204	29.903442	4909.833431	894.215864	76.184311	1.000000	1.000000	1.000000	
11.096823	523.165849	598.503118	-76.334151	33.003118	5826.902564	1089.205825	83.163143	1.000000	1.000000	1.000000	
11.201086	516.901902	601.633994	-82.598098	36.133994	6822.445764	1305.665558	90.156039	1.000000	1.000000	1.000000	
11.298321	510.729995	604.764871	-88.770005	39.264871	7880.113777	1541.730061	97.066183	1.000000	1.000000	1.000000	
11.397478	504.495688	607.895747	-95.004312	42.395747	9025.819309	1797.399333	104.034699	1.000000	1.000000	1.000000	
11.504941	498.475101	610.995423	-101.024899	45.495423	10206.030253	2069.833488	110.796497	1.000000	1.000000	1.000000	
11.597344	492.697874	614.126299	-106.802126	48.626299	11406.694181	2364.516934	117.350804	1.000000	1.000000	1.000000	
11.697381	486.951847	617.257175	-112.548153	51.757175	12667.086836	2678.805150	123.878537	1.000000	1.000000	1.000000	
11.830225	481.205819	620.388051	-118.294181	54.888051	13993.513147	3012.698136	130.407865	1.000000	1.000000	1.000000	
11.897527	481.205819	620.356851	-118.294181	54.856851	13993.513147	3009.274095	130.394736	1.000000	1.000000	1.000000	
11.997185	475.428592	623.487727	-124.071408	57.987727	15393.714195	3362.576485	136.953608	1.000000	1.000000	1.000000	
12.105283	469.682565	626.587403	-129.817435	61.087403	16852.566369	3731.670817	143.472078	1.000000	1.000000	1.000000	
12.197806	463.936538	629.687079	-135.563462	64.187079	18377.452197	4119.981132	149.991444	1.000000	1.000000	1.000000	
12.297773	458.190511	632.817955	-141.309489	67.317955	19968.371681	4531.707098	156.525010	1.000000	1.000000	1.000000	
12.401003	452.627004	635.856791	-146.872996	70.356791	21571.676989	4950.078085	162.855012	1.000000	1.000000	1.000000	
12.497994	456.170251	638.083441	-143.329749	72.583441	20543.416846	5268.355841	160.660427	1.000000	1.000000	1.000000	
12.597838	459.896019	640.310090	-139.603981	74.810090	19489.271558	5596.549531	158.385041	1.000000	1.000000	1.000000	
12.700930	463.682626	642.567939	-135.817374	77.067939	18446.358997	5939.467221	156.159618	1.000000	1.000000	1.000000	
12.797291	467.714154	644.794588	-131.785846	79.294588	17367.509264	6287.631721	153.802279	1.000000	1.000000	1.000000	
12.898011	471.928201	647.021237	-127.571799	81.521237	16274.563835	6645.712155	151.394438	1.000000	1.000000	1.000000	
12.997486	476.295129	649.247887	-123.204871	83.747887	15179.440305	7013.708522	148.973651	1.000000	1.000000	1.000000	
13.097056	481.457656	651.474536	-118.042344	85.974536	13933.994929	7391.620823	146.032927	1.000000	1.000000	1.000000	
13.201009	486.743424	653.701185	-112.756576	88.201185	12714.045504	7779.449057	143.155491	1.000000	1.000000	1.000000	
13.300808	492.058831	655.927834	-107.441169	90.427834	11543.604764	8177.193225	140.430759	1.000000	1.000000	1.000000	
13.400931	497.344599	658.154484	-102.155401	92.654484	10435.726030	8584.853327	137.915116	1.000000	1.000000	1.000000	
13.497338	502.691206	660.381133	-96.808794	94.881133	9371.942576	9002.429362	135.552100	1.000000	1.000000	1.000000	
13.601151	507.976974	661.938542	-91.523026	96.438542	8376.464366	9300.392388	132.954341	1.000000	1.000000	1.000000	
13.697371	513.231541	663.372711	-86.268459	97.872711	7442.247010	9579.067608	130.465760	1.000000	1.000000	1.000000	
13.801133	518.454909	664.775680	-81.045091	99.275680	6568.306852	9855.660734	128.156028	1.000000	1.000000	1.000000	
13.921605	523.648636	666.178650	-75.851364	100.678650	5753.429421	10136.190506	126.054036	1.000000	1.000000	1.000000	
13.997272	528.872003	667.520779	-70.627997	102.020779	4988.313894	10408.239333	124.082848	1.000000	1.000000	1.000000	
14.103638	534.034531	668.923748	-65.465469	103.423748	4285.727638	10696.471682	122.401795	1.000000	1.000000	1.000000	
14.200994	539.289098	670.356357	-60.210902	104.856357	3625.352669	10994.855683	120.914054	1.000000	1.000000	1.000000	
14.297509	544.512466	671.759327	-54.987534	106.259327	3023.628907	11291.044491	119.643944	1.000000	1.000000	1.000000	
14.401311	549.706193	673.162296	-49.793807	107.662296	2479.423179	11591.169944	118.619531	1.000000	1.000000	1.000000	
14.501052	554.899921	672.730705	-44.600079	107.230705	1989.167061	11498.424107	116.136089	1.000000	1.000000	1.000000	
14.597473	560.062448	669.055874	-39.437552	103.555874	1555.320483	10723.819099	110.811279	1.000000	1.000000	1.000000	
14.701254	565.224976	664.097164	-34.275024	98.597164	1174.777284	9721.400652	104.384759	1.000000	1.000000	1.000000	
14.801110	570.418703	659.077613	-29.081297	93.577613	845.721820	8756.769605	97.992303	1.000000	1.000000	1.000000	
15.013362	575.367511	653.995662	-24.132489	88.495662	582.377038	7831.482186	91.727091	1.000000	1.000000	1.000000	
15.019072	580.316318	648.913711	-19.183682	83.413711	368.013647	6957.847214	85.591243	1.000000	1.000000	1.000000	
15.098000	584.714446	643.862960	-14.785554	78.362960	218.612616	6140.753564	79.745634	1.000000	1.000000	1.000000	
15.202124	586.421613	641.794903	-13.078387	76.294903	171.044212	5820.912208	77.407728	1.000000	1.000000	1.000000	
15.297892	588.128780	640.491245	-11.371220	74.991245	129.304647	5623.686883	75.848477	1.000000	1.000000	1.000000	
15.402001	589.835947	639.402868	-9.664053	73.902868	93.393921	5461.633878	74.532059	1.000000	1.000000	1.000000	
15.498544	591.543114	638.375330	-7.956886	72.875330	63.312034	5310.813773	73.308429	1.000000	1.000000	1.000000	
15.598511	593.250281	637.714393	-6.249719	72.214393	39.058986	5214.918532	72.484326	1.000000	1.000000	1.000000	
15.701704	594.957448	637.664975	-4.542552	72.164975	20.634777	5207.783662	72.307803	1.000000	1.000000	1.000000	
15.798274	596.664615	638.411158	-2.835385	72.911158	8.039406	5316.036931	72.966268	1.000000	1.000000	1.000000	
15.898517	598.371782	639.647180	-1.128218	74.147180	1.272875	5497.804344	74.155763	1.000000	1.000000	1.000000	
16.001793	600.078949	640.912843	0.578949	75.412843	0.335183	5687.096854	75.415065	1.000000	1.000000	1.000000	
16.099858	601.786117	642.209705	2.286117	76.709705	5.226329	5884.378879	76.743763	1.000000	1.000000	1.000000	
16.198847	603.493284	643.934008	3.993284	78.434008	15.946314	6151.893569	78.535596	1.000000	1.000000	1.000000	
16.301814	605.200451	646.453910	5.700451	80.953910	32.495139	6553.535579	81.154364	1.000000	1.000000	1.000000	
16.398370	606.907618	649.279573	7.407618	83.779573	54.872802	7019.016802	84.106418	1.000000	1.000000	1.000000	
16.506363	608.614785	652.136435	9.114785	86.636435	83.079304	7505.871901	87.114587	1.000000	1.000000	1.000000	
16.598455	610.321952	654.962098	10.821952	89.462098	117.114646	8003.466919	90.114269	1.000000	1.000000	1.000000	
