AF-MATB V. 3.03
Programmed using MATLAB 7.5.0 and other Custom MATLAB Functions.

William Daniel Miller, Jr.
Air Force Research Laboratory
711th Human Performance Wing
Human Effectiveness Directorate
Applied Neuroscience Branch

RMS Target Value is:	2500.000000	
Main Tank Automation Lower Limit is:	2350.000000	
Main Tank Automation Upper Limit is:	2650.000000	


Event Time	Tank A Value	Tank B Value	Tank A Difference	Tank B Difference	Tank A Deviation	Tank B Deviation	Euclidian Distance From Target	Tank A In Range?	Tank B In Range?	Both In Range?
0.098744	2499.571908	2499.571908	-0.428092	-0.428092	0.183262	0.183262	0.605413	1.000000	1.000000	1.000000	
0.110565	2496.424116	2496.424116	-3.575884	-3.575884	12.786943	12.786943	5.057063	1.000000	1.000000	1.000000	
0.199297	2493.411758	2493.411758	-6.588242	-6.588242	43.404938	43.404938	9.317182	1.000000	1.000000	1.000000	
0.298255	2490.112750	2490.112750	-9.887250	-9.887250	97.757715	97.757715	13.982683	1.000000	1.000000	1.000000	
0.401871	2486.743064	2486.743064	-13.256936	-13.256936	175.746362	175.746362	18.748139	1.000000	1.000000	1.000000	
0.498371	2483.442666	2483.442666	-16.557334	-16.557334	274.145315	274.145315	23.415607	1.000000	1.000000	1.000000	
0.601645	2480.076701	2480.076701	-19.923299	-19.923299	396.937858	396.937858	28.175800	1.000000	1.000000	1.000000	
0.701507	2476.745380	2476.745380	-23.254620	-23.254620	540.777368	540.777368	32.886999	1.000000	1.000000	1.000000	
0.801790	2473.407878	2473.407878	-26.592122	-26.592122	707.140936	707.140936	37.606939	1.000000	1.000000	1.000000	
0.898701	2470.107994	2470.107994	-29.892006	-29.892006	893.532036	893.532036	42.273681	1.000000	1.000000	1.000000	
1.001606	2466.744595	2466.744595	-33.255405	-33.255405	1105.921975	1105.921975	47.030245	1.000000	1.000000	1.000000	
1.112453	2463.413787	2463.413787	-36.586213	-36.586213	1338.550976	1338.550976	51.740719	1.000000	1.000000	1.000000	
1.198277	2460.114908	2460.114908	-39.885092	-39.885092	1590.820592	1590.820592	56.406039	1.000000	1.000000	1.000000	
1.301695	2456.743168	2456.743168	-43.256832	-43.256832	1871.153480	1871.153480	61.174398	1.000000	1.000000	1.000000	
1.398214	2453.446256	2453.446256	-46.553744	-46.553744	2167.251041	2167.251041	65.836936	1.000000	1.000000	1.000000	
1.501557	2450.081125	2450.081125	-49.918875	-49.918875	2491.894057	2491.894057	70.595950	1.000000	1.000000	1.000000	
1.601855	2446.746340	2446.746340	-53.253660	-53.253660	2835.952320	2835.952320	75.312048	1.000000	1.000000	1.000000	
1.698484	2443.444573	2443.444573	-56.555427	-56.555427	3198.516278	3198.516278	79.981451	1.000000	1.000000	1.000000	
1.798284	2440.116161	2440.116161	-59.883839	-59.883839	3586.074194	3586.074194	84.688538	1.000000	1.000000	1.000000	
1.901667	2436.747629	2436.747629	-63.252371	-63.252371	4000.862389	4000.862389	89.452360	1.000000	1.000000	1.000000	
1.998063	2433.452407	2433.452407	-66.547593	-66.547593	4428.582155	4428.582155	94.112509	1.000000	1.000000	1.000000	
2.115136	2430.077267	2430.077267	-69.922733	-69.922733	4889.188544	4889.188544	98.885677	1.000000	1.000000	1.000000	
2.198309	2426.783135	2426.783135	-73.216865	-73.216865	5360.709255	5360.709255	103.544283	1.000000	1.000000	1.000000	
2.298029	2423.453696	2423.453696	-76.546304	-76.546304	5859.336598	5859.336598	108.252821	1.000000	1.000000	1.000000	
2.401688	2420.076718	2420.076718	-79.923282	-79.923282	6387.731049	6387.731049	113.028590	1.000000	1.000000	1.000000	
2.518130	2416.121159	2416.121159	-83.878841	-83.878841	7035.659966	7035.659966	118.622595	1.000000	1.000000	1.000000	
2.598492	2413.446218	2413.446218	-86.553782	-86.553782	7491.557191	7491.557191	122.405532	1.000000	1.000000	1.000000	
2.702180	2410.077259	2410.077259	-89.922741	-89.922741	8086.099389	8086.099389	127.169960	1.000000	1.000000	1.000000	
2.801448	2406.749210	2406.749210	-93.250790	-93.250790	8695.709881	8695.709881	131.876532	1.000000	1.000000	1.000000	
2.898181	2403.449881	2403.449881	-96.550119	-96.550119	9321.925433	9321.925433	136.542487	1.000000	1.000000	1.000000	
3.001828	2400.076773	2400.076773	-99.923227	-99.923227	9984.651228	9984.651228	141.312782	1.000000	1.000000	1.000000	
3.101595	2396.749537	2396.749537	-103.250463	-103.250463	10660.658119	10660.658119	146.018205	1.000000	1.000000	1.000000	
3.198176	2393.451363	2393.451363	-106.548637	-106.548637	11352.611995	11352.611995	150.682527	1.000000	1.000000	1.000000	
3.301679	2390.074983	2390.074983	-109.925017	-109.925017	12083.509279	12083.509279	155.457449	1.000000	1.000000	1.000000	
3.401631	2386.744005	2386.744005	-113.255995	-113.255995	12826.920501	12826.920501	160.168165	1.000000	1.000000	1.000000	
3.498004	2383.451241	2383.451241	-116.548759	-116.548759	13583.613144	13583.613144	164.824835	1.000000	1.000000	1.000000	
3.643618	2380.076914	2380.076914	-119.923086	-119.923086	14381.546442	14381.546442	169.596854	1.000000	1.000000	1.000000	
3.698167	2376.783125	2376.783125	-123.216875	-123.216875	15182.398346	15182.398346	174.254976	1.000000	1.000000	1.000000	
3.801600	2373.414978	2373.414978	-126.585022	-126.585022	16023.767734	16023.767734	179.018255	1.000000	1.000000	1.000000	
3.898079	2370.118002	2370.118002	-129.881998	-129.881998	16869.333377	16869.333377	183.680883	1.000000	1.000000	1.000000	
4.001495	2366.747803	2366.747803	-133.252197	-133.252197	17756.148111	17756.148111	188.447065	1.000000	1.000000	1.000000	
4.098930	2363.451468	2363.451468	-136.548532	-136.548532	18645.501584	18645.501584	193.108786	1.000000	1.000000	1.000000	
4.201508	2360.081547	2360.081547	-139.918453	-139.918453	19577.173620	19577.173620	197.874575	1.000000	1.000000	1.000000	
4.301469	2356.750183	2356.750183	-143.249817	-143.249817	20520.510130	20520.510130	202.585834	1.000000	1.000000	1.000000	
4.401541	2353.414799	2353.414799	-146.585201	-146.585201	21487.221268	21487.221268	207.302780	1.000000	1.000000	1.000000	
4.498574	2350.110124	2350.110124	-149.889876	-149.889876	22466.975002	22466.975002	211.976296	1.000000	1.000000	1.000000	
4.601740	2346.745057	2346.745057	-153.254943	-153.254943	23487.077637	23487.077637	216.735219	0.000000	0.000000	0.000000	
4.698177	2343.449150	2343.449150	-156.550850	-156.550850	24508.168680	24508.168680	221.396335	0.000000	0.000000	0.000000	
4.801660	2340.077111	2340.077111	-159.922889	-159.922889	25575.330356	25575.330356	226.165118	0.000000	0.000000	0.000000	
4.901433	2336.748164	2336.748164	-163.251836	-163.251836	26651.161952	26651.161952	230.872961	0.000000	0.000000	0.000000	
4.998351	2333.446333	2333.446333	-166.553667	-166.553667	27740.123854	27740.123854	235.542454	0.000000	0.000000	0.000000	
5.101520	2330.081352	2330.081352	-169.918648	-169.918648	28872.346962	28872.346962	240.301257	0.000000	0.000000	0.000000	
5.201462	2326.747208	2326.747208	-173.252792	-173.252792	30016.529904	30016.529904	245.016448	0.000000	0.000000	0.000000	
5.298019	2326.088241	2323.452370	-173.911759	-176.547630	30245.300068	31169.065486	247.819220	0.000000	0.000000	0.000000	
5.442137	2325.413200	2320.077167	-174.586800	-179.922833	30480.550791	32372.225899	250.704561	0.000000	0.000000	0.000000	
5.498262	2324.753847	2316.780405	-175.246153	-183.219595	30711.214008	33569.420161	253.536258	0.000000	0.000000	0.000000	
5.601405	2324.081681	2316.444321	-175.918319	-183.555679	30947.255018	33692.687196	254.243864	0.000000	0.000000	0.000000	
5.698308	2323.421426	2316.114194	-176.578574	-183.885806	31179.992825	33813.989720	254.939174	0.000000	0.000000	0.000000	
5.801646	2322.746655	2315.776808	-177.253345	-184.223192	31418.748441	33938.184409	255.650020	0.000000	0.000000	0.000000	
5.898136	2322.088217	2315.447590	-177.911783	-184.552410	31652.602361	34059.592190	256.343899	0.000000	0.000000	0.000000	
6.001705	2321.414340	2315.110651	-178.585660	-184.889349	31892.837921	34184.071411	257.054293	0.000000	0.000000	0.000000	
6.120607	2320.747533	2314.777247	-179.252467	-185.222753	32131.447026	34307.468152	257.757474	0.000000	0.000000	0.000000	
6.198348	2320.087462	2314.447212	-179.912538	-185.552788	32368.521431	34429.837244	258.453784	0.000000	0.000000	0.000000	
6.301575	2319.413392	2314.110177	-180.586608	-185.889823	32611.523033	34555.026374	259.165101	0.000000	0.000000	0.000000	
6.401581	2318.747598	2313.777280	-181.252402	-186.222720	32852.433173	34678.901471	259.867918	0.000000	0.000000	0.000000	
6.501507	2318.080932	2313.443947	-181.919068	-186.556053	33094.547331	34803.160983	260.571887	0.000000	0.000000	0.000000	
6.598022	2317.421254	2313.114108	-182.578746	-186.885892	33334.998342	34926.336610	261.268703	0.000000	0.000000	0.000000	
6.701849	2316.747031	2312.776996	-183.252969	-187.223004	33581.650796	35052.453173	261.981114	0.000000	0.000000	0.000000	
6.798182	2316.087618	2312.447290	-183.912382	-187.552710	33823.764158	35176.019037	262.678098	0.000000	0.000000	0.000000	
6.898014	2318.418435	2312.114316	-181.581565	-187.885684	32971.864683	35301.030203	261.290824	0.000000	0.000000	0.000000	
7.001563	2320.777126	2311.777360	-179.222874	-188.222640	32120.838658	35427.762082	259.901136	0.000000	0.000000	0.000000	
7.098105	2323.085952	2311.447528	-176.914048	-188.552472	31298.580335	35552.034699	258.554859	0.000000	0.000000	0.000000	
7.201803	2325.446843	2311.110258	-174.553157	-188.889742	30468.804536	35679.334695	257.192806	0.000000	0.000000	0.000000	
7.301420	2327.776493	2310.777451	-172.223507	-189.222549	29660.936529	35805.173127	255.863459	0.000000	0.000000	0.000000	
7.398237	2330.087280	2313.088238	-169.912720	-186.911762	28870.332437	34936.006692	252.599167	0.000000	0.000000	0.000000	
7.501548	2332.446809	2315.447767	-167.553191	-184.552233	28074.071879	34059.526675	249.266120	0.000000	0.000000	0.000000	
7.601344	2334.776413	2317.777371	-165.223587	-182.222629	27298.833642	33205.086353	245.975446	0.000000	0.000000	0.000000	
7.698074	2337.085988	2320.086946	-162.914012	-179.913054	26540.975288	32368.706880	242.713169	0.000000	0.000000	0.000000	
7.801412	2339.445502	2322.446460	-160.554498	-177.553540	25777.746844	31525.259486	239.380464	0.000000	0.000000	0.000000	
7.901383	2341.776978	2324.777936	-158.223022	-175.222064	25034.524837	30702.771777	236.087477	0.000000	0.000000	0.000000	
7.998123	2344.084951	2327.085909	-155.915049	-172.914091	24309.502613	29899.282891	232.827802	0.000000	0.000000	0.000000	
8.104389	2346.446500	2329.447459	-153.553500	-170.552541	23578.677230	29088.169342	229.492585	0.000000	0.000000	0.000000	
8.197945	2348.750671	2331.751630	-151.249329	-168.248370	22876.359453	28307.514173	226.238533	0.000000	0.000000	0.000000	
8.305163	2351.117071	2334.118029	-148.882929	-165.881971	22166.126487	27516.828144	222.896735	1.000000	0.000000	0.000000	
8.398142	2353.421631	2336.422589	-146.578369	-163.577411	21485.218195	26757.569228	219.642408	1.000000	0.000000	0.000000	
8.502193	2355.783795	2338.784753	-144.216205	-161.215247	20798.313856	25990.355855	216.306888	1.000000	0.000000	0.000000	
8.597985	2358.084313	2341.085271	-141.915687	-158.914729	20140.062233	25253.891024	213.058568	1.000000	0.000000	0.000000	
8.702395	2360.447135	2343.448093	-139.552865	-156.551907	19475.002089	24508.499453	209.722439	1.000000	0.000000	0.000000	
8.836945	2362.776979	2345.777937	-137.223021	-154.222063	18830.157483	23784.444620	206.433045	1.000000	0.000000	0.000000	
8.898104	2365.085222	2348.086180	-134.914778	-151.913820	18201.997430	23077.808743	203.174325	1.000000	0.000000	0.000000	
9.001357	2367.445274	2350.446233	-132.554726	-149.553767	17570.755276	22366.329318	199.842650	1.000000	1.000000	1.000000	
9.101524	2369.777244	2352.778202	-130.222756	-147.221798	16957.966180	21674.257725	196.550818	1.000000	1.000000	1.000000	
9.198048	2372.085472	2355.086430	-127.914528	-144.913570	16362.126576	20999.942806	193.292704	1.000000	1.000000	1.000000	
9.299359	2374.428369	2357.429327	-125.571631	-142.570673	15768.234489	20326.396694	189.985871	1.000000	1.000000	1.000000	
9.401848	2376.779769	2359.780728	-123.220231	-140.219272	15183.225231	19661.444333	186.667270	1.000000	1.000000	1.000000	
9.498082	2379.086455	2362.087413	-120.913545	-137.912587	14620.085338	19019.881546	183.412014	1.000000	1.000000	1.000000	
9.601865	2381.449307	2364.450266	-118.550693	-135.549734	14054.266750	18373.730515	180.077753	1.000000	1.000000	1.000000	
9.701978	2383.781172	2366.782130	-116.218828	-133.217870	13506.815968	17747.000798	176.787490	1.000000	1.000000	1.000000	
9.798056	2386.087469	2369.088427	-113.912531	-130.911573	12976.064819	17137.839988	173.533584	1.000000	1.000000	1.000000	
9.899223	2388.428121	2371.429079	-111.571879	-128.570921	12448.284274	16530.481760	170.231507	1.000000	1.000000	1.000000	
10.001326	2390.778084	2373.779042	-109.221916	-126.220958	11929.426978	15931.730219	166.916617	1.000000	1.000000	1.000000	
10.103991	2393.111401	2376.112359	-106.888599	-123.887641	11425.172667	15348.147606	163.625549	1.000000	1.000000	1.000000	
10.198066	2395.418341	2378.419299	-104.581659	-121.580701	10937.323426	14781.866820	160.372037	1.000000	1.000000	1.000000	
10.336909	2397.779457	2380.780415	-102.220543	-119.219585	10449.039508	14213.309495	157.042507	1.000000	1.000000	1.000000	
10.398062	2400.086112	2383.087071	-99.913888	-116.912929	9982.784955	13668.633066	153.790175	1.000000	1.000000	1.000000	
10.501441	2402.444773	2385.445731	-97.555227	-114.554269	9517.022330	13122.680500	150.464955	1.000000	1.000000	1.000000	
10.601408	2404.779198	2387.780156	-95.220802	-112.219844	9067.001219	12593.293426	147.174368	1.000000	1.000000	1.000000	
10.698073	2407.086347	2390.087306	-92.913653	-109.912694	8632.946853	12080.800389	143.922713	1.000000	1.000000	1.000000	
10.844828	2410.499087	2393.500045	-89.500913	-106.499955	8010.413513	11342.240457	139.113817	1.000000	1.000000	1.000000	
10.900622	2411.811647	2394.812606	-88.188353	-105.187394	7777.185528	11064.387917	137.264611	1.000000	1.000000	1.000000	
11.001415	2414.114321	2397.115280	-85.885679	-102.884720	7376.349812	10585.265704	134.020952	1.000000	1.000000	1.000000	
11.098192	2416.421037	2399.421995	-83.578963	-100.578005	6985.443070	10115.935050	130.772238	1.000000	1.000000	1.000000	
11.201185	2418.779219	2401.780177	-81.220781	-98.219823	6596.815346	9647.133673	127.451752	1.000000	1.000000	1.000000	
11.298685	2421.084931	2404.085889	-78.915069	-95.914111	6227.588085	9199.516599	124.205896	1.000000	1.000000	1.000000	
11.402727	2423.444715	2406.445673	-76.555285	-93.554327	5860.711732	8752.412135	120.884754	1.000000	1.000000	1.000000	
11.501787	2425.776055	2408.777014	-74.223945	-91.222986	5509.193951	8321.633233	117.604537	1.000000	1.000000	1.000000	
11.601033	2428.110330	2411.111289	-71.889670	-88.888711	5168.124605	7901.203013	114.321160	1.000000	1.000000	1.000000	
11.697941	2430.418288	2413.419247	-69.581712	-86.580753	4841.614579	7496.226833	111.075836	1.000000	1.000000	1.000000	
11.802441	2432.777368	2415.778327	-67.222632	-84.221673	4518.882220	7093.290283	107.759791	1.000000	1.000000	1.000000	
12.012476	2435.090027	2418.090985	-64.909973	-81.909015	4213.304609	6709.086711	104.510245	1.000000	1.000000	1.000000	
12.018028	2437.846643	2420.847601	-62.153357	-79.152399	3863.039810	6265.102253	100.638671	1.000000	1.000000	1.000000	
12.105025	2439.799923	2422.800881	-60.200077	-77.199119	3624.049254	5959.703910	97.896645	1.000000	1.000000	1.000000	
12.199007	2442.108285	2425.109244	-57.891715	-74.890756	3351.450611	5608.625373	94.657678	1.000000	1.000000	1.000000	
12.301081	2444.489640	2427.490598	-55.510360	-72.509402	3081.400045	5257.613310	91.318198	1.000000	1.000000	1.000000	
12.402402	2446.800323	2429.801281	-53.199677	-70.198719	2830.205651	4927.860134	88.079883	1.000000	1.000000	1.000000	
12.498106	2449.087668	2432.088626	-50.912332	-67.911374	2592.065584	4611.954727	84.876500	1.000000	1.000000	1.000000	
12.602591	2451.471013	2434.471972	-48.528987	-65.528028	2355.062544	4293.922501	81.541309	1.000000	1.000000	1.000000	
12.702358	2453.798312	2436.799271	-46.201688	-63.200729	2134.595937	3994.332187	78.287471	1.000000	1.000000	1.000000	
12.798790	2456.105687	2439.106645	-43.894313	-60.893355	1926.710738	3708.000683	75.064715	1.000000	1.000000	1.000000	
12.902455	2458.468973	2441.469931	-41.531027	-58.530069	1724.826205	3425.768946	71.767647	1.000000	1.000000	1.000000	
13.002351	2460.799970	2443.800928	-39.200030	-56.199072	1536.642387	3158.335713	68.519910	1.000000	1.000000	1.000000	
13.099583	2463.112538	2446.113497	-36.887462	-53.886503	1360.684826	2903.755244	65.302680	1.000000	1.000000	1.000000	
13.199186	2465.446304	2448.447263	-34.553696	-51.552737	1193.957885	2657.684733	62.061603	1.000000	1.000000	1.000000	
13.303061	2467.800504	2450.801462	-32.199496	-49.198538	1036.807545	2420.496117	58.798841	1.000000	1.000000	1.000000	
13.399322	2470.111291	2453.112250	-29.888709	-46.887750	893.334902	2198.461131	55.603921	1.000000	1.000000	1.000000	
13.502475	2472.466045	2455.467003	-27.533955	-44.532997	758.118683	1983.187805	52.357487	1.000000	1.000000	1.000000	
13.610363	2474.798089	2457.799048	-25.201911	-42.200952	635.136300	1780.920381	49.153399	1.000000	1.000000	1.000000	
13.699104	2477.108173	2460.109131	-22.891827	-39.890869	524.035734	1591.281392	45.992577	1.000000	1.000000	1.000000	
13.802515	2479.467627	2462.468585	-20.532373	-37.531415	421.578332	1408.607075	42.780666	1.000000	1.000000	1.000000	
13.902697	2481.807157	2464.808115	-18.192843	-35.191885	330.979554	1238.468785	39.616264	1.000000	1.000000	1.000000	
13.998972	2484.106926	2467.107884	-15.893074	-32.892116	252.589794	1081.891263	36.530550	1.000000	1.000000	1.000000	
14.100035	2486.439450	2469.440408	-13.560550	-30.559592	183.888525	933.888665	33.433175	1.000000	1.000000	1.000000	
14.202386	2488.799368	2471.800326	-11.200632	-28.199674	125.454162	795.221611	30.342640	1.000000	1.000000	1.000000	
14.335629	2491.953116	2474.954074	-8.046884	-25.045926	64.752348	627.298412	26.306858	1.000000	1.000000	1.000000	
14.398897	2493.440613	2476.441571	-6.559387	-23.558429	43.025560	554.999572	24.454552	1.000000	1.000000	1.000000	
14.502219	2495.801309	2478.802268	-4.198691	-21.197732	17.629003	449.343858	21.609555	1.000000	1.000000	1.000000	
14.599040	2498.106917	2481.107876	-1.893083	-18.892124	3.583762	356.912368	18.986736	1.000000	1.000000	1.000000	
14.702292	2500.468272	2483.469231	0.468272	-16.530769	0.219279	273.266334	16.537400	1.000000	1.000000	1.000000	
14.802197	2502.798820	2485.799778	2.798820	-14.200222	7.833393	201.646301	14.473413	1.000000	1.000000	1.000000	
14.902567	2505.137975	2488.138933	5.137975	-11.861067	26.398786	140.684905	12.926086	1.000000	1.000000	1.000000	
14.999113	2507.446203	2490.447161	7.446203	-9.552839	55.445932	91.256737	12.112088	1.000000	1.000000	1.000000	
15.102865	2509.802842	2492.803801	9.802842	-7.196199	96.095716	51.785287	12.160633	1.000000	1.000000	1.000000	
15.199231	2512.109678	2495.110636	12.109678	-4.889364	146.644293	23.905881	13.059486	1.000000	1.000000	1.000000	
15.304002	2514.468174	2497.469132	14.468174	-2.530868	209.328047	6.405293	14.687864	1.000000	1.000000	1.000000	
15.408604	2516.798586	2499.799545	16.798586	-0.200455	282.192503	0.040182	16.799782	1.000000	1.000000	1.000000	
15.499431	2519.110976	2502.111934	19.110976	2.111934	365.229386	4.460264	19.227315	1.000000	1.000000	1.000000	
15.603436	2521.467855	2504.468813	21.467855	4.468813	460.868788	19.970290	21.928043	1.000000	1.000000	1.000000	
15.702897	2523.798881	2506.799840	23.798881	6.799840	566.386749	46.237818	24.751254	1.000000	1.000000	1.000000	
15.799509	2526.113097	2509.114055	26.113097	9.114055	681.893821	83.065999	27.657907	1.000000	1.000000	1.000000	
15.899162	2528.440590	2511.441549	28.440590	11.441549	808.867181	130.909036	30.655770	1.000000	1.000000	1.000000	
16.002913	2530.805239	2513.806197	30.805239	13.806197	948.962743	190.611080	33.757574	1.000000	1.000000	1.000000	
16.100046	2533.105158	2516.106117	33.105158	16.106117	1095.951505	259.406991	36.815194	1.000000	1.000000	1.000000	
