AF-MATB V. 3.03
Programmed using MATLAB 7.5.0 and other Custom MATLAB Functions.

William Daniel Miller, Jr.
Air Force Research Laboratory
711th Human Performance Wing
Human Effectiveness Directorate
Applied Neuroscience Branch

RMS Center Coordinate (X,Y) is:	599.500000	565.500000	
Tracking Box X-Axis Lower Limit is:	449.500000	
Tracking Box X-Axis Upper Limit is:	749.500000	
Tracking Box Y-Axis Lower Limit is:	417.500000	
Tracking Box Y-Axis Upper Limit is:	717.500000	


Event Time	X Coordinates	Y Coordinates	X-Axis Difference	Y-Axis Difference	X-Axis Deviation	Y-Axis Deviation	Euclidian Distance From Target	X-Axis In Range?	y-Axis In Range?	Both In Range?
0.095931	594.046706	565.783824	-5.453294	0.283824	29.738411	0.080556	5.460675	1.000000	1.000000	1.000000	
0.102975	588.563773	566.097288	-10.936227	0.597288	119.601067	0.356753	10.952526	1.000000	1.000000	1.000000	
0.202147	583.141679	566.808552	-16.358321	1.308552	267.594662	1.712308	16.410575	1.000000	1.000000	1.000000	
0.299197	577.688385	567.703896	-21.811615	2.203896	475.746527	4.857157	21.922675	1.000000	1.000000	1.000000	
0.402161	572.266292	568.538400	-27.233708	3.038400	741.674859	9.231874	27.402677	1.000000	1.000000	1.000000	
0.498696	566.844198	569.372904	-32.655802	3.872904	1066.401389	14.999384	32.884659	1.000000	1.000000	1.000000	
0.598637	561.422105	570.207408	-38.077895	4.707408	1449.926117	22.159688	38.367770	1.000000	1.000000	1.000000	
0.702058	556.000011	571.041912	-43.499989	5.541912	1892.249044	30.712786	43.851589	1.000000	1.000000	1.000000	
0.798522	550.577917	571.876416	-48.922083	6.376416	2393.370170	40.658678	49.335878	1.000000	1.000000	1.000000	
0.898771	547.110504	572.679720	-52.389496	7.179720	2744.659320	51.548376	52.879180	1.000000	1.000000	1.000000	
1.001963	549.454090	573.514224	-50.045910	8.014224	2504.593098	64.227782	50.683537	1.000000	1.000000	1.000000	
1.102911	551.797676	574.348728	-47.702324	8.848728	2275.511670	78.299982	48.516097	1.000000	1.000000	1.000000	
1.198535	552.367543	575.183232	-47.132457	9.683232	2221.468517	93.764976	48.116873	1.000000	1.000000	1.000000	
1.301855	548.349449	576.017736	-51.150551	10.517736	2616.378845	110.622763	52.220701	1.000000	1.000000	1.000000	
1.398498	544.392196	576.852240	-55.107804	11.352240	3036.870106	128.873345	56.264940	1.000000	1.000000	1.000000	
1.507226	540.434942	577.686744	-59.065058	12.186744	3488.681080	148.516720	60.309185	1.000000	1.000000	1.000000	
1.599861	536.508888	578.521248	-62.991112	13.021248	3967.880148	169.552889	64.322881	1.000000	1.000000	1.000000	
1.698672	533.532835	576.084784	-65.967165	10.584784	4351.666810	112.037643	66.810961	1.000000	1.000000	1.000000	
1.798495	530.556782	573.617119	-68.943218	8.117119	4753.167254	65.887629	69.419413	1.000000	1.000000	1.000000	
1.898738	527.519889	571.027775	-71.980111	5.527775	5181.136320	30.556301	72.192054	1.000000	1.000000	1.000000	
2.001907	524.604676	567.795711	-74.895324	2.295711	5609.309491	5.270291	74.930500	1.000000	1.000000	1.000000	
2.105759	523.096583	564.502807	-76.403417	-0.997193	5837.482058	0.994393	76.409924	1.000000	1.000000	1.000000	
2.198474	521.649330	560.904143	-77.850670	-4.595857	6060.726743	21.121899	77.986208	1.000000	1.000000	1.000000	
2.298586	520.233278	556.478679	-79.266722	-9.021321	6283.213293	81.384228	79.778428	1.000000	1.000000	1.000000	
2.401953	518.817225	552.084415	-80.682775	-13.415585	6509.710255	179.977915	81.790514	1.000000	1.000000	1.000000	
2.501928	517.462012	547.690151	-82.037988	-17.809849	6730.231546	317.190716	83.948927	1.000000	1.000000	1.000000	
2.625221	516.106799	543.264687	-83.393201	-22.235313	6954.426041	494.409139	86.306635	1.000000	1.000000	1.000000	
2.698473	514.782786	538.870423	-84.717214	-26.629577	7177.006412	709.134367	88.803946	1.000000	1.000000	1.000000	
2.798510	513.427573	534.476159	-86.072427	-31.023841	7408.462751	962.478709	91.492849	1.000000	1.000000	1.000000	
2.901957	512.072360	530.081895	-87.427640	-35.418105	7643.592294	1254.442163	94.329393	1.000000	1.000000	1.000000	
2.998452	510.748347	525.656431	-88.751653	-39.843569	7876.855964	1587.509996	97.284973	1.000000	1.000000	1.000000	
3.101970	509.363494	521.262167	-90.136506	-44.237833	8124.589764	1956.985879	100.407050	1.000000	1.000000	1.000000	
3.198417	508.008281	516.867903	-91.491719	-48.632097	8370.734692	2365.080875	103.613781	1.000000	1.000000	1.000000	
3.302000	506.653068	512.473639	-92.846932	-53.026361	8620.552824	2811.794983	106.922158	1.000000	1.000000	1.000000	
3.401859	505.358695	508.079375	-94.141305	-57.420625	8862.585345	3297.128205	110.271091	1.000000	1.000000	1.000000	
3.524717	504.187562	503.745951	-95.312438	-61.754049	9084.460871	3813.562606	113.569465	1.000000	1.000000	1.000000	
3.598502	503.016429	499.351687	-96.483571	-66.148313	9309.079502	4375.599360	116.981532	1.000000	1.000000	1.000000	
3.701980	501.937336	494.957423	-97.562664	-70.542577	9518.473432	4976.255226	120.394056	1.000000	1.000000	1.000000	
3.801826	500.887883	490.563159	-98.612117	-74.936841	9724.349639	5615.530206	123.854269	1.000000	1.000000	1.000000	
3.898508	499.838430	486.535495	-99.661570	-78.964505	9932.428550	6235.393128	127.152749	1.000000	1.000000	1.000000	
3.998533	506.090530	486.353388	-93.409470	-79.146612	8725.329083	6264.186255	122.431676	1.000000	1.000000	1.000000	
4.099842	512.373830	486.263321	-87.126170	-79.236679	7590.969481	6278.451349	117.768505	1.000000	1.000000	1.000000	
4.198467	518.625930	487.060894	-80.874070	-78.439106	6540.615167	6152.693385	112.664584	1.000000	1.000000	1.000000	
4.301928	525.001270	488.562027	-74.498730	-76.937973	5550.060729	5919.451710	107.095810	1.000000	1.000000	1.000000	
4.398619	532.172210	490.155200	-67.327790	-75.344800	4533.031256	5676.838893	101.043902	1.000000	1.000000	1.000000	
4.502082	539.372790	491.687533	-60.127210	-73.812467	3615.281326	5448.280277	95.202739	1.000000	1.000000	1.000000	
4.611439	546.573371	493.280706	-52.926629	-72.219294	2801.228104	5215.626405	89.536889	1.000000	1.000000	1.000000	
4.698510	552.490071	494.873879	-47.009929	-70.626121	2209.933458	4988.048935	84.840924	1.000000	1.000000	1.000000	
4.798501	557.550331	496.496692	-41.949669	-69.003308	1759.774751	4761.456470	80.754141	1.000000	1.000000	1.000000	
4.902018	562.702631	498.089865	-36.797369	-67.410135	1354.046378	4544.126245	76.799561	1.000000	1.000000	1.000000	
4.998498	569.046771	500.230599	-30.453229	-65.269401	927.399161	4260.094772	72.024259	1.000000	1.000000	1.000000	
5.102646	575.514151	502.555412	-23.985849	-62.944588	575.320952	3962.021209	67.359796	1.000000	1.000000	1.000000	
5.201987	582.011171	504.880225	-17.488829	-60.619775	305.859136	3674.757159	63.092125	1.000000	1.000000	1.000000	
5.302005	587.622111	507.205038	-11.877889	-58.294962	141.084243	3398.302620	59.492746	1.000000	1.000000	1.000000	
5.398492	592.376611	509.681171	-7.123389	-55.818829	50.742667	3115.741686	56.271523	1.000000	1.000000	1.000000	
5.502721	597.221591	513.650224	-2.278409	-51.849776	5.191146	2688.399275	51.899811	1.000000	1.000000	1.000000	
5.598748	602.036931	517.680117	2.536931	-47.819883	6.436021	2286.741205	47.887130	1.000000	1.000000	1.000000	
5.702146	606.821072	521.710010	7.321072	-43.789990	53.598089	1917.563212	44.397762	1.000000	1.000000	1.000000	
5.801985	611.146572	525.771103	11.646572	-39.728897	135.642631	1578.385238	41.400820	1.000000	1.000000	1.000000	
5.903211	615.411232	528.978876	15.911232	-36.521124	253.167295	1333.792475	39.836664	1.000000	1.000000	1.000000	
5.998394	619.615052	531.303689	20.115052	-34.196311	404.615310	1169.387658	39.673706	1.000000	1.000000	1.000000	
6.106348	623.665992	532.926503	24.165992	-32.573497	583.995165	1061.032739	40.558944	1.000000	1.000000	1.000000	
6.198560	627.654532	534.397996	28.154532	-31.102004	792.677672	967.334678	41.952501	1.000000	1.000000	1.000000	
6.298595	629.783552	535.808649	30.283552	-29.691351	917.093527	881.576343	42.410728	1.000000	1.000000	1.000000	
6.398459	630.237132	537.280142	30.737132	-28.219858	944.771295	796.360398	41.726870	1.000000	1.000000	1.000000	
6.501109	630.659512	538.690795	31.159512	-26.809205	970.915205	718.733480	41.105336	1.000000	1.000000	1.000000	
6.598479	625.195469	543.954071	25.695469	-21.545929	660.257150	464.227069	33.533330	1.000000	1.000000	1.000000	
6.703395	621.193147	548.849187	21.693147	-16.650813	470.592611	277.249589	27.346704	1.000000	1.000000	1.000000	
6.798437	617.222024	553.714662	17.722024	-11.785338	314.070128	138.894183	21.282958	1.000000	1.000000	1.000000	
6.898725	613.219701	558.580138	13.719701	-6.919862	188.230195	47.884487	15.366024	1.000000	1.000000	1.000000	
7.001851	609.217378	563.445614	9.717378	-2.054386	94.427438	4.220502	9.932167	1.000000	1.000000	1.000000	
7.098446	605.246255	568.311090	5.746255	2.811090	33.019450	7.902226	6.397005	1.000000	1.000000	1.000000	
7.198449	601.243933	573.114166	1.743933	7.614166	3.041301	57.975520	7.811326	1.000000	1.000000	1.000000	
7.319286	597.241610	577.979642	-2.258390	12.479642	5.100327	155.741454	12.682341	1.000000	1.000000	1.000000	
7.398407	593.270487	582.845117	-6.229513	17.345117	38.806834	300.853098	18.429865	1.000000	1.000000	1.000000	
7.498549	589.268164	587.710593	-10.231836	22.210593	104.690467	493.310452	24.454057	1.000000	1.000000	1.000000	
7.602042	585.297041	592.576069	-14.202959	27.076069	201.724038	733.113517	30.575113	1.000000	1.000000	1.000000	
7.698414	581.294718	597.441545	-18.205282	31.941545	331.432278	1020.262292	36.765399	1.000000	1.000000	1.000000	
7.798583	577.323596	602.307021	-22.176404	36.807021	491.792913	1354.756777	42.971499	1.000000	1.000000	1.000000	
7.897452	573.321273	607.172497	-26.178727	41.672497	685.325760	1736.596973	49.213034	1.000000	1.000000	1.000000	
8.002888	569.318950	612.037972	-30.181050	46.537972	910.895783	2165.782879	55.467816	1.000000	1.000000	1.000000	
8.099844	565.347827	616.903448	-34.152173	51.403448	1166.370913	2642.314495	61.714548	1.000000	1.000000	1.000000	
8.202160	561.345504	621.768924	-38.154496	56.268924	1455.765544	3166.191821	67.984979	1.000000	1.000000	1.000000	
8.298604	557.343181	626.634400	-42.156819	61.134400	1777.197350	3737.414858	74.260435	1.000000	1.000000	1.000000	
8.401203	553.372059	631.437476	-46.127941	65.937476	2127.786975	4347.750714	80.470726	1.000000	1.000000	1.000000	
8.503173	549.369736	636.302952	-50.130264	70.802952	2513.043388	5013.057959	86.753106	1.000000	1.000000	1.000000	
8.598321	545.398613	641.168427	-54.101387	75.668427	2926.960077	5725.710915	93.019734	1.000000	1.000000	1.000000	
8.698440	541.427490	646.033903	-58.072510	80.533903	3372.416399	6485.709581	99.288096	1.000000	1.000000	1.000000	
8.801655	537.425167	650.899379	-62.074833	85.399379	3853.284850	7293.053958	105.576223	1.000000	1.000000	1.000000	
8.898433	533.636565	655.764855	-65.863435	90.264855	4337.992133	8147.744045	111.739591	1.000000	1.000000	1.000000	
9.002160	530.365882	660.293371	-69.134118	94.793371	4779.526314	8985.783151	117.325656	1.000000	1.000000	1.000000	
9.137040	531.129359	658.215287	-68.370641	92.715287	4674.544568	8596.124380	115.198390	1.000000	1.000000	1.000000	
9.198585	532.443516	653.538242	-67.056484	88.038242	4496.572040	7750.732142	110.667539	1.000000	1.000000	1.000000	
9.298462	533.787313	647.301198	-65.712687	81.801198	4318.157203	6691.436049	104.926609	1.000000	1.000000	1.000000	
9.401838	535.131110	641.064154	-64.368890	75.564154	4143.353948	5709.941395	99.263767	1.000000	1.000000	1.000000	
9.498539	536.506108	634.856750	-62.993892	69.356750	3968.230482	4810.358772	93.694126	1.000000	1.000000	1.000000	
9.597439	537.881105	631.218666	-61.618895	65.718666	3796.888251	4318.943041	90.087909	1.000000	1.000000	1.000000	
9.697457	539.195262	630.118702	-60.304738	64.618702	3636.661433	4175.576607	88.386866	1.000000	1.000000	1.000000	
9.801013	537.562248	627.610586	-61.937752	62.110586	3836.285180	3857.724835	87.715506	1.000000	1.000000	1.000000	
9.897329	535.868393	626.142989	-63.631607	60.642989	4048.981391	3677.572160	87.900817	1.000000	1.000000	1.000000	
9.997436	533.867219	624.857913	-65.632781	59.357913	4307.661975	3523.361862	88.493072	1.000000	1.000000	1.000000	
10.106161	531.560284	623.635237	-67.939716	58.135237	4615.804962	3379.705789	89.417620	1.000000	1.000000	1.000000	
10.197647	529.223710	622.718321	-70.276290	57.218321	4938.756942	3273.936248	90.623911	1.000000	1.000000	1.000000	
10.300987	526.826296	621.862245	-72.673704	56.362245	5281.467316	3176.702634	91.968309	1.000000	1.000000	1.000000	
10.397362	524.336841	620.945329	-75.163159	55.445329	5649.500445	3074.184464	93.400669	1.000000	1.000000	1.000000	
10.500975	521.663307	620.120452	-77.836693	54.620452	6058.550812	2983.393826	95.089140	1.000000	1.000000	1.000000	
10.600968	518.928932	619.295576	-80.571068	53.795576	6491.696937	2893.964029	96.879621	1.000000	1.000000	1.000000	
10.697449	516.255398	617.643900	-83.244602	52.143900	6929.663764	2718.986322	98.227542	1.000000	1.000000	1.000000	
10.800993	513.642704	615.319864	-85.857296	49.819864	7371.475346	2482.018848	99.264768	1.000000	1.000000	1.000000	
10.900846	511.000369	612.995828	-88.499631	47.495828	7832.184651	2255.853662	100.439227	1.000000	1.000000	1.000000	
10.997450	508.358035	610.671792	-91.141965	45.171792	8306.857819	2040.490763	101.721918	1.000000	1.000000	1.000000	
11.100994	505.745340	608.347756	-93.754660	42.847756	8789.936194	1835.930153	103.081843	1.000000	1.000000	1.000000	
11.210172	503.103006	606.023719	-96.396994	40.523719	9292.380448	1642.171832	104.568410	1.000000	1.000000	1.000000	
11.297486	503.103006	605.962879	-96.396994	40.462879	9292.380448	1637.244607	104.544847	1.000000	1.000000	1.000000	
11.400662	500.490312	603.638843	-99.009688	38.138843	9802.918392	1454.571362	106.101318	1.000000	1.000000	1.000000	
11.503490	497.847977	601.344447	-101.652023	35.844447	10333.133733	1284.824385	107.786632	1.000000	1.000000	1.000000	
11.602996	495.205643	598.959571	-104.294357	33.459571	10877.312936	1119.542885	109.530159	1.000000	1.000000	1.000000	
11.697412	495.235283	599.020411	-104.264717	33.520411	10871.131245	1123.617947	109.520542	1.000000	1.000000	1.000000	
11.800436	492.622588	596.696375	-106.877412	31.196375	11422.781101	973.213798	111.337302	1.000000	1.000000	1.000000	
11.897372	489.980254	594.372339	-109.519746	28.872339	11994.574753	833.611936	113.261585	1.000000	1.000000	1.000000	
11.997365	487.306720	592.077942	-112.193280	26.577942	12587.332155	706.387025	115.298392	1.000000	1.000000	1.000000	
12.098396	484.756425	588.162706	-114.743575	22.662706	13166.087944	513.598256	116.960191	1.000000	1.000000	1.000000	
12.200360	483.092211	582.840350	-116.407789	17.340350	13550.773371	300.687743	117.692230	1.000000	1.000000	1.000000	
12.297304	481.427996	577.580394	-118.072004	12.080394	13940.998017	145.935919	118.688390	1.000000	1.000000	1.000000	
12.397851	479.794982	572.258038	-119.705018	6.758038	14329.291316	45.671075	119.895631	1.000000	1.000000	1.000000	
12.497485	478.161968	566.935682	-121.338032	1.435682	14722.918087	2.061182	121.346526	1.000000	1.000000	1.000000	
12.597308	476.497753	561.583686	-123.002247	-3.916314	15129.552696	15.337519	123.064577	1.000000	1.000000	1.000000	
12.702074	474.894379	556.231689	-124.605621	-9.268311	15526.560811	85.901582	124.949840	1.000000	1.000000	1.000000	
12.798139	473.291005	550.879693	-126.208995	-14.620307	15928.710545	213.753371	127.052996	1.000000	1.000000	1.000000	
12.900985	471.626790	545.619737	-127.873210	-19.880263	16351.557809	395.224855	129.409361	1.000000	1.000000	1.000000	
12.997570	471.948096	540.222979	-127.551904	-25.277021	16269.488148	638.927808	130.032365	1.000000	1.000000	1.000000	
13.097565	472.238202	534.826220	-127.261798	-30.673780	16195.565125	940.880763	130.906248	1.000000	1.000000	1.000000	
13.197503	472.559509	529.429462	-126.940491	-36.070538	16113.888365	1301.083721	131.965799	1.000000	1.000000	1.000000	
13.300869	472.849615	524.032703	-126.650385	-41.467297	16040.320092	1719.536681	133.266113	1.000000	1.000000	1.000000	
13.397364	473.170921	518.635945	-126.329079	-46.864055	15959.036233	2196.239643	134.741515	1.000000	1.000000	1.000000	
13.500909	473.461027	513.209547	-126.038973	-52.290453	15885.822708	2734.291507	136.455539	1.000000	1.000000	1.000000	
13.600823	475.066213	507.659908	-124.433787	-57.840092	15483.767302	3345.476208	137.219691	1.000000	1.000000	1.000000	
13.707962	480.065959	502.447230	-119.434041	-63.052770	14264.490070	3975.651817	135.056069	1.000000	1.000000	1.000000	
13.797382	486.106225	500.109632	-113.393775	-65.390368	12858.148098	4275.900291	130.897091	1.000000	1.000000	1.000000	
13.897479	492.330572	500.647113	-107.169428	-64.852887	11485.286375	4205.896937	125.264454	1.000000	1.000000	1.000000	
13.997340	498.615758	501.429515	-100.884242	-64.070485	10177.630325	4105.027083	119.510072	1.000000	1.000000	1.000000	
14.099891	504.869744	502.241556	-94.630256	-63.258444	8954.885360	4001.630695	113.826693	1.000000	1.000000	1.000000	
14.197487	508.279850	504.002078	-91.220150	-61.497922	8321.115747	3781.994418	110.014136	1.000000	1.000000	1.000000	
14.300887	507.378116	506.742280	-92.121884	-58.757720	8486.441465	3452.469713	109.265325	1.000000	1.000000	1.000000	
14.397378	506.506022	509.880281	-92.993978	-55.619719	8647.879868	3093.553125	108.357893	1.000000	1.000000	1.000000	
14.501070	505.573089	513.598603	-93.926911	-51.901397	8822.264692	2693.755036	107.312719	1.000000	1.000000	1.000000	
14.597433	504.456075	517.407404	-95.043925	-48.092596	9033.347733	2312.897755	106.518757	1.000000	1.000000	1.000000	
14.701022	502.329741	520.668646	-97.170259	-44.831354	9442.059260	2009.850304	107.013595	1.000000	1.000000	1.000000	
14.797429	500.142567	523.806648	-99.357433	-41.693352	9871.899488	1738.335637	107.750801	1.000000	1.000000	1.000000	
15.011827	497.955393	526.944649	-101.544607	-38.555351	10311.307175	1486.515077	108.617781	1.000000	1.000000	1.000000	
15.017053	495.768219	530.082651	-103.731781	-35.417349	10760.282321	1254.388625	109.611454	1.000000	1.000000	1.000000	
15.100887	493.612245	533.220652	-105.887755	-32.279348	11212.216557	1041.956282	110.698567	1.000000	1.000000	1.000000	
15.197394	491.883712	536.358654	-107.616288	-29.141346	11581.265521	849.218047	111.492078	1.000000	1.000000	1.000000	
15.300051	493.702618	539.342216	-105.797382	-26.157784	11193.086082	684.229684	108.983099	1.000000	1.000000	1.000000	
15.401078	493.438621	540.697483	-106.061379	-24.802517	11249.016210	615.164846	108.922822	1.000000	1.000000	1.000000	
15.497457	493.051383	541.319551	-106.448617	-24.180449	11331.307993	584.694136	109.160442	1.000000	1.000000	1.000000	
15.601067	492.756186	541.727898	-106.743814	-23.772102	11394.241809	565.112834	109.358834	1.000000	1.000000	1.000000	
15.700734	492.521829	542.136245	-106.978171	-23.363755	11444.329103	545.865026	109.499745	1.000000	1.000000	1.000000	
15.800759	492.257832	542.391713	-107.242168	-23.108287	11500.882680	533.992931	109.703581	1.000000	1.000000	1.000000	
15.897338	491.870594	542.555140	-107.629406	-22.944860	11584.088955	526.466582	110.047969	1.000000	1.000000	1.000000	
16.000606	491.575397	542.657728	-107.924603	-22.842272	11647.719902	521.769397	110.315408	1.000000	1.000000	1.000000	
16.098339	491.250560	542.789955	-108.249440	-22.710045	11717.941281	515.746129	110.606001	1.000000	1.000000	1.000000	
16.200299	490.955363	543.014223	-108.544637	-22.485777	11781.938293	505.610177	110.849215	1.000000	1.000000	1.000000	
16.300351	491.424565	543.177650	-108.075435	-22.322350	11680.299556	498.287298	110.356635	1.000000	1.000000	1.000000	
16.397457	492.199528	543.309878	-107.300472	-22.190122	11513.391249	492.401527	109.570949	1.000000	1.000000	1.000000	
16.499476	492.944851	543.442105	-106.555149	-22.057895	11353.999786	486.550724	108.814294	1.000000	1.000000	1.000000	
16.600755	493.719814	543.605533	-105.780186	-21.894467	11189.447808	479.367701	108.022292	1.000000	1.000000	1.000000	
