AF-MATB V. 3.03
Programmed using MATLAB 7.5.0 and other Custom MATLAB Functions.

William Daniel Miller, Jr.
Air Force Research Laboratory
711th Human Performance Wing
Human Effectiveness Directorate
Applied Neuroscience Branch

RMS Target Value is:	2500.000000	
Main Tank Automation Lower Limit is:	2350.000000	
Main Tank Automation Upper Limit is:	2650.000000	


Event Time	Tank A Value	Tank B Value	Tank A Difference	Tank B Difference	Tank A Deviation	Tank B Deviation	Euclidian Distance From Target	Tank A In Range?	Tank B In Range?	Both In Range?
0.104583	2499.602425	2499.602425	-0.397575	-0.397575	0.158066	0.158066	0.562255	1.000000	1.000000	1.000000	
0.115994	2496.246682	2496.246682	-3.753318	-3.753318	14.087394	14.087394	5.307993	1.000000	1.000000	1.000000	
0.200226	2493.393281	2493.393281	-6.606719	-6.606719	43.648740	43.648740	9.343312	1.000000	1.000000	1.000000	
0.303346	2490.027251	2490.027251	-9.972749	-9.972749	99.455716	99.455716	14.103596	1.000000	1.000000	1.000000	
0.402996	2486.703266	2486.703266	-13.296734	-13.296734	176.803148	176.803148	18.804422	1.000000	1.000000	1.000000	
0.499452	2483.405242	2483.405242	-16.594758	-16.594758	275.386010	275.386010	23.468533	1.000000	1.000000	1.000000	
0.603028	2480.029075	2480.029075	-19.970925	-19.970925	398.837826	398.837826	28.243152	1.000000	1.000000	1.000000	
0.702897	2476.698375	2476.698375	-23.301625	-23.301625	542.965742	542.965742	32.953475	1.000000	1.000000	1.000000	
0.799401	2473.404970	2473.404970	-26.595030	-26.595030	707.295626	707.295626	37.611052	1.000000	1.000000	1.000000	
0.902763	2470.032525	2470.032525	-29.967475	-29.967475	898.049561	898.049561	42.380410	1.000000	1.000000	1.000000	
1.002678	2466.703022	2466.703022	-33.296978	-33.296978	1108.688762	1108.688762	47.089038	1.000000	1.000000	1.000000	
1.113663	2463.369733	2463.369733	-36.630267	-36.630267	1341.776438	1341.776438	51.803020	1.000000	1.000000	1.000000	
1.199515	2460.068566	2460.068566	-39.931434	-39.931434	1594.519450	1594.519450	56.471576	1.000000	1.000000	1.000000	
1.302817	2456.703670	2456.703670	-43.296330	-43.296330	1874.572217	1874.572217	61.230258	1.000000	1.000000	1.000000	
1.399482	2453.403871	2453.403871	-46.596129	-46.596129	2171.199266	2171.199266	65.896878	1.000000	1.000000	1.000000	
1.499544	2450.069235	2450.069235	-49.930765	-49.930765	2493.081293	2493.081293	70.612765	1.000000	1.000000	1.000000	
1.603146	2446.701559	2446.701559	-53.298441	-53.298441	2840.723816	2840.723816	75.375378	1.000000	1.000000	1.000000	
1.698902	2443.424300	2443.424300	-56.575700	-56.575700	3200.809818	3200.809818	80.010122	1.000000	1.000000	1.000000	
1.799664	2440.069455	2440.069455	-59.930545	-59.930545	3591.670192	3591.670192	84.754589	1.000000	1.000000	1.000000	
1.899997	2436.722502	2436.722502	-63.277498	-63.277498	4004.041801	4004.041801	89.487896	1.000000	1.000000	1.000000	
1.999508	2433.407861	2433.407861	-66.592139	-66.592139	4434.512949	4434.512949	94.175506	1.000000	1.000000	1.000000	
2.105408	2430.048354	2430.048354	-69.951646	-69.951646	4893.232727	4893.232727	98.926566	1.000000	1.000000	1.000000	
2.198859	2426.767011	2426.767011	-73.232989	-73.232989	5363.070692	5363.070692	103.567086	1.000000	1.000000	1.000000	
2.300024	2423.387167	2423.387167	-76.612833	-76.612833	5869.526238	5869.526238	108.346908	1.000000	1.000000	1.000000	
2.399488	2420.072761	2420.072761	-79.927239	-79.927239	6388.363463	6388.363463	113.034185	1.000000	1.000000	1.000000	
2.502732	2416.703524	2416.703524	-83.296476	-83.296476	6938.302867	6938.302867	117.799006	1.000000	1.000000	1.000000	
2.599626	2413.400325	2413.400325	-86.599675	-86.599675	7499.503708	7499.503708	122.470435	1.000000	1.000000	1.000000	
2.703397	2410.027901	2410.027901	-89.972099	-89.972099	8094.978520	8094.978520	127.239762	1.000000	1.000000	1.000000	
2.828953	2405.759668	2405.759668	-94.240332	-94.240332	8881.240208	8881.240208	133.275956	1.000000	1.000000	1.000000	
2.900049	2403.384464	2403.384464	-96.615536	-96.615536	9334.561890	9334.561890	136.635002	1.000000	1.000000	1.000000	
2.999576	2400.069053	2400.069053	-99.930947	-99.930947	9986.194123	9986.194123	141.323700	1.000000	1.000000	1.000000	
3.106386	2396.590665	2396.590665	-103.409335	-103.409335	10693.490493	10693.490493	146.242884	1.000000	1.000000	1.000000	
3.200140	2393.396424	2393.396424	-106.603576	-106.603576	11364.322346	11364.322346	150.760223	1.000000	1.000000	1.000000	
3.299106	2390.091322	2390.091322	-109.908678	-109.908678	12079.917550	12079.917550	155.434343	1.000000	1.000000	1.000000	
3.403095	2386.699523	2386.699523	-113.300477	-113.300477	12836.998069	12836.998069	160.231071	1.000000	1.000000	1.000000	
3.498611	2383.431888	2383.431888	-116.568112	-116.568112	13588.124824	13588.124824	164.852205	1.000000	1.000000	1.000000	
3.599494	2380.073065	2380.073065	-119.926935	-119.926935	14382.469711	14382.469711	169.602298	1.000000	1.000000	1.000000	
3.702996	2376.700257	2376.700257	-123.299743	-123.299743	15202.826722	15202.826722	174.372169	1.000000	1.000000	1.000000	
3.799561	2373.406745	2373.406745	-126.593255	-126.593255	16025.852239	16025.852239	179.029898	1.000000	1.000000	1.000000	
3.899552	2370.068324	2370.068324	-129.931676	-129.931676	16882.240432	16882.240432	183.751138	1.000000	1.000000	1.000000	
4.003238	2366.697119	2366.697119	-133.302881	-133.302881	17769.657983	17769.657983	188.518742	1.000000	1.000000	1.000000	
4.100564	2363.399630	2363.399630	-136.600370	-136.600370	18659.661087	18659.661087	193.182096	1.000000	1.000000	1.000000	
4.199574	2360.070020	2360.070020	-139.929980	-139.929980	19580.399347	19580.399347	197.890876	1.000000	1.000000	1.000000	
4.300333	2356.709765	2356.709765	-143.290235	-143.290235	20532.091584	20532.091584	202.642994	1.000000	1.000000	1.000000	
4.399480	2353.408297	2353.408297	-146.591703	-146.591703	21489.127252	21489.127252	207.311974	1.000000	1.000000	1.000000	
4.500693	2350.036152	2350.036152	-149.963848	-149.963848	22489.155737	22489.155737	212.080908	1.000000	1.000000	1.000000	
4.599662	2346.734236	2346.734236	-153.265764	-153.265764	23490.394491	23490.394491	216.750522	0.000000	0.000000	0.000000	
4.699986	2343.386619	2343.386619	-156.613381	-156.613381	24527.751059	24527.751059	221.484767	0.000000	0.000000	0.000000	
4.799475	2340.073839	2340.073839	-159.926161	-159.926161	25576.376888	25576.376888	226.169745	0.000000	0.000000	0.000000	
4.899668	2336.736188	2336.736188	-163.263812	-163.263812	26655.072233	26655.072233	230.889897	0.000000	0.000000	0.000000	
5.002898	2333.367272	2333.367272	-166.632728	-166.632728	27766.466091	27766.466091	235.654264	0.000000	0.000000	0.000000	
5.099414	2330.073803	2330.073803	-169.926197	-169.926197	28874.912458	28874.912458	240.311933	0.000000	0.000000	0.000000	
5.202619	2326.722016	2326.722016	-173.277984	-173.277984	30025.259679	30025.259679	245.052075	0.000000	0.000000	0.000000	
5.298371	2323.438620	2323.438620	-176.561380	-176.561380	31173.921006	31173.921006	249.695499	0.000000	0.000000	0.000000	
5.398613	2320.098830	2320.098830	-179.901170	-179.901170	32364.430910	32364.430910	254.418674	0.000000	0.000000	0.000000	
5.501806	2316.736821	2316.736821	-183.263179	-183.263179	33585.392690	33585.392690	259.173273	0.000000	0.000000	0.000000	
5.598413	2313.438968	2313.438968	-186.561032	-186.561032	34805.018548	34805.018548	263.837141	0.000000	0.000000	0.000000	
5.702322	2310.061198	2310.061198	-189.938802	-189.938802	36076.748355	36076.748355	268.614029	0.000000	0.000000	0.000000	
5.801817	2306.739159	2306.739159	-193.260841	-193.260841	37349.752798	37349.752798	273.312103	0.000000	0.000000	0.000000	
5.898736	2303.434826	2303.434826	-196.565174	-196.565174	38637.867643	38637.867643	277.985135	0.000000	0.000000	0.000000	
6.001764	2300.074057	2300.074057	-199.925943	-199.925943	39970.382527	39970.382527	282.737980	0.000000	0.000000	0.000000	
6.120933	2296.737754	2296.737754	-203.262246	-203.262246	41315.540796	41315.540796	287.456226	0.000000	0.000000	0.000000	
6.198429	2293.439858	2293.439858	-206.560142	-206.560142	42667.092291	42667.092291	292.120154	0.000000	0.000000	0.000000	
6.302041	2290.067605	2290.067605	-209.932395	-209.932395	44071.610286	44071.610286	296.889240	0.000000	0.000000	0.000000	
6.401862	2286.737696	2286.737696	-213.262304	-213.262304	45480.810351	45480.810351	301.598443	0.000000	0.000000	0.000000	
6.498686	2283.440549	2283.440549	-216.559451	-216.559451	46897.995956	46897.995956	306.261313	0.000000	0.000000	0.000000	
6.598347	2280.110340	2280.110340	-219.889660	-219.889660	48351.462688	48351.462688	310.970940	0.000000	0.000000	0.000000	
6.698832	2276.758125	2276.758125	-223.241875	-223.241875	49836.934619	49836.934619	315.711687	0.000000	0.000000	0.000000	
6.798891	2273.436855	2273.436855	-226.563145	-226.563145	51330.858476	51330.858476	320.408672	0.000000	0.000000	0.000000	
6.898461	2270.102605	2270.102605	-229.897395	-229.897395	52852.812380	52852.812380	325.124014	0.000000	0.000000	0.000000	
6.998471	2266.770963	2266.770963	-233.229037	-233.229037	54395.783740	54395.783740	329.835667	0.000000	0.000000	0.000000	
7.101975	2263.401405	2263.401405	-236.598595	-236.598595	55978.895169	55978.895169	334.600942	0.000000	0.000000	0.000000	
7.198708	2260.105348	2260.105348	-239.894652	-239.894652	57549.443863	57549.443863	339.262270	0.000000	0.000000	0.000000	
7.337162	2256.735363	2256.735363	-243.264637	-243.264637	59177.683732	59177.683732	344.028149	0.000000	0.000000	0.000000	
7.398703	2253.437039	2253.437039	-246.562961	-246.562961	60793.293566	60793.293566	348.692683	0.000000	0.000000	0.000000	
7.502001	2250.067439	2250.067439	-249.932561	-249.932561	62466.285231	62466.285231	353.458018	0.000000	0.000000	0.000000	
7.602010	2246.735369	2246.735369	-253.264631	-253.264631	64142.973228	64142.973228	358.170276	0.000000	0.000000	0.000000	
7.698435	2243.442627	2243.442627	-256.557373	-256.557373	65821.685470	65821.685470	362.826916	0.000000	0.000000	0.000000	
7.798481	2240.107778	2240.107778	-259.892222	-259.892222	67543.967170	67543.967170	367.543105	0.000000	0.000000	0.000000	
7.898389	2236.775986	2236.775986	-263.224014	-263.224014	69286.881373	69286.881373	372.254970	0.000000	0.000000	0.000000	
7.998528	2233.438870	2233.438870	-266.561130	-266.561130	71054.836064	71054.836064	376.974365	0.000000	0.000000	0.000000	
8.099487	2230.108319	2230.108319	-269.891681	-269.891681	72841.519565	72841.519565	381.684476	0.000000	0.000000	0.000000	
8.201931	2226.735382	2226.735382	-273.264618	-273.264618	74673.551448	74673.551448	386.454529	0.000000	0.000000	0.000000	
8.298293	2223.442255	2223.442255	-276.557745	-276.557745	76484.186193	76484.186193	391.111713	0.000000	0.000000	0.000000	
8.398620	2220.103642	2220.103642	-279.896358	-279.896358	78341.971302	78341.971302	395.833226	0.000000	0.000000	0.000000	
8.502230	2216.723477	2216.723477	-283.276523	-283.276523	80245.588601	80245.588601	400.613501	0.000000	0.000000	0.000000	
8.598405	2213.436851	2213.436851	-286.563149	-286.563149	82118.438276	82118.438276	405.261492	0.000000	0.000000	0.000000	
8.698550	2210.105701	2210.105701	-289.894299	-289.894299	84038.704439	84038.704439	409.972449	0.000000	0.000000	0.000000	
8.801839	2206.734625	2206.734625	-293.265375	-293.265375	86004.580195	86004.580195	414.739871	0.000000	0.000000	0.000000	
8.898422	2203.443123	2203.443123	-296.556877	-296.556877	87945.981016	87945.981016	419.394757	0.000000	0.000000	0.000000	
8.998321	2200.109685	2200.109685	-299.890315	-299.890315	89934.200820	89934.200820	424.108950	0.000000	0.000000	0.000000	
9.136926	2196.735615	2196.735615	-303.264385	-303.264385	91969.287146	91969.287146	428.880606	0.000000	0.000000	0.000000	
9.198355	2193.440649	2193.440649	-306.559351	-306.559351	93978.635569	93978.635569	433.540392	0.000000	0.000000	0.000000	
9.298425	2190.106676	2190.106676	-309.893324	-309.893324	96033.871990	96033.871990	438.255341	0.000000	0.000000	0.000000	
9.401763	2186.739086	2186.739086	-313.260914	-313.260914	98132.400275	98132.400275	443.017833	0.000000	0.000000	0.000000	
9.498377	2183.442880	2183.442880	-316.557120	-316.557120	100208.410425	100208.410425	447.679373	0.000000	0.000000	0.000000	
9.601929	2180.069387	2180.069387	-319.930613	-319.930613	102355.597238	102355.597238	452.450212	0.000000	0.000000	0.000000	
9.701822	2176.738515	2176.738515	-323.261485	-323.261485	104497.987713	104497.987713	457.160776	0.000000	0.000000	0.000000	
9.798368	2173.442351	2173.442351	-326.557649	-326.557649	106639.897818	106639.897818	461.822255	0.000000	0.000000	0.000000	
9.901880	2170.066891	2170.066891	-329.933109	-329.933109	108855.856302	108855.856302	466.595877	0.000000	0.000000	0.000000	
9.998336	2166.777763	2166.777763	-333.222237	-333.222237	111037.058932	111037.058932	471.247406	0.000000	0.000000	0.000000	
10.104256	2163.402816	2163.402816	-336.597184	-336.597184	113297.664004	113297.664004	476.020302	0.000000	0.000000	0.000000	
10.198704	2160.104514	2160.104514	-339.895486	-339.895486	115528.941146	115528.941146	480.684806	0.000000	0.000000	0.000000	
10.301809	2156.734208	2156.734208	-343.265792	-343.265792	117831.403991	117831.403991	485.451139	0.000000	0.000000	0.000000	
10.398641	2153.436334	2153.436334	-346.563666	-346.563666	120106.374847	120106.374847	490.115037	0.000000	0.000000	0.000000	
10.501802	2150.070197	2150.070197	-349.929803	-349.929803	122450.866788	122450.866788	494.875473	0.000000	0.000000	0.000000	
10.602165	2146.733723	2146.733723	-353.266277	-353.266277	124797.062816	124797.062816	499.593961	0.000000	0.000000	0.000000	
10.698290	2143.441216	2143.441216	-356.558784	-356.558784	127134.166518	127134.166518	504.250268	0.000000	0.000000	0.000000	
10.799896	2140.091974	2140.091974	-359.908026	-359.908026	129533.787163	129533.787163	508.986812	0.000000	0.000000	0.000000	
10.902024	2136.736979	2136.736979	-363.263021	-363.263021	131960.022071	131960.022071	513.731490	0.000000	0.000000	0.000000	
10.998504	2133.439362	2133.439362	-366.560638	-366.560638	134366.701482	134366.701482	518.395026	0.000000	0.000000	0.000000	
11.101921	2130.071557	2130.071557	-369.928443	-369.928443	136847.052609	136847.052609	523.157821	0.000000	0.000000	0.000000	
11.201790	2126.740194	2126.740194	-373.259806	-373.259806	139322.882996	139322.882996	527.869080	0.000000	0.000000	0.000000	
11.298352	2123.443025	2123.443025	-376.556975	-376.556975	141795.155346	141795.155346	532.531981	0.000000	0.000000	0.000000	
11.401763	2120.074109	2120.074109	-379.925891	-379.925891	144343.682866	144343.682866	537.296348	0.000000	0.000000	0.000000	
11.504559	2116.742296	2116.742296	-383.257704	-383.257704	146886.467766	146886.467766	542.008243	0.000000	0.000000	0.000000	
11.598286	2113.444186	2113.444186	-386.555814	-386.555814	149425.397087	149425.397087	546.672474	0.000000	0.000000	0.000000	
11.702276	2110.052067	2110.052067	-389.947933	-389.947933	152059.390560	152059.390560	551.469656	0.000000	0.000000	0.000000	
11.801634	2106.740207	2106.740207	-393.259793	-393.259793	154653.265156	154653.265156	556.153333	0.000000	0.000000	0.000000	
11.898219	2103.443059	2103.443059	-396.556941	-396.556941	157257.407204	157257.407204	560.816204	0.000000	0.000000	0.000000	
11.998304	2100.111888	2100.111888	-399.888112	-399.888112	159910.502087	159910.502087	565.527191	0.000000	0.000000	0.000000	
12.099182	2096.777787	2096.777787	-403.222213	-403.222213	162588.153078	162588.153078	570.242322	0.000000	0.000000	0.000000	
12.198211	2093.446445	2093.446445	-406.553555	-406.553555	165285.793397	165285.793397	574.953552	0.000000	0.000000	0.000000	
12.299784	2090.074855	2090.074855	-409.925145	-409.925145	168038.624449	168038.624449	579.721700	0.000000	0.000000	0.000000	
12.401635	2086.740519	2086.740519	-413.259481	-413.259481	170783.398834	170783.398834	584.437163	0.000000	0.000000	0.000000	
12.498314	2083.443393	2083.443393	-416.556607	-416.556607	173519.406895	173519.406895	589.100003	0.000000	0.000000	0.000000	
12.598385	2080.106640	2080.106640	-419.893360	-419.893360	176310.433705	176310.433705	593.818884	0.000000	0.000000	0.000000	
12.701729	2076.741402	2076.741402	-423.258598	-423.258598	179147.840802	179147.840802	598.578050	0.000000	0.000000	0.000000	
12.798564	2073.439956	2073.439956	-426.560044	-426.560044	181953.470877	181953.470877	603.246999	0.000000	0.000000	0.000000	
12.901648	2070.071767	2070.071767	-429.928233	-429.928233	184838.285509	184838.285509	608.010338	0.000000	0.000000	0.000000	
13.001669	2066.739077	2066.739077	-433.260923	-433.260923	187715.027061	187715.027061	612.723473	0.000000	0.000000	0.000000	
13.098548	2063.440348	2063.440348	-436.559652	-436.559652	190584.330054	190584.330054	617.388581	0.000000	0.000000	0.000000	
13.198750	2060.103745	2060.103745	-439.896255	-439.896255	193508.715597	193508.715597	622.107251	0.000000	0.000000	0.000000	
13.298735	2056.759058	2056.759058	-443.240942	-443.240942	196462.532929	196462.532929	626.837352	0.000000	0.000000	0.000000	
13.400786	2053.434815	2053.434815	-446.565185	-446.565185	199420.464211	199420.464211	631.538541	0.000000	0.000000	0.000000	
13.498292	2050.109974	2050.109974	-449.890026	-449.890026	202401.035446	202401.035446	636.240576	0.000000	0.000000	0.000000	
13.601631	2046.741015	2046.741015	-453.258985	-453.258985	205443.707573	205443.707573	641.005004	0.000000	0.000000	0.000000	
13.701761	2043.405524	2043.405524	-456.594476	-456.594476	208478.515708	208478.515708	645.722101	0.000000	0.000000	0.000000	
13.798240	2040.111349	2040.111349	-459.888651	-459.888651	211497.571199	211497.571199	650.380767	0.000000	0.000000	0.000000	
13.901814	2036.739204	2036.739204	-463.260796	-463.260796	214610.565515	214610.565515	655.149701	0.000000	0.000000	0.000000	
14.006696	2033.165116	2033.165116	-466.834884	-466.834884	217934.808604	217934.808604	660.204224	0.000000	0.000000	0.000000	
14.098343	2030.135328	2030.135328	-469.864672	-469.864672	220772.809525	220772.809525	664.488991	0.000000	0.000000	0.000000	
14.201969	2026.735040	2026.735040	-473.264960	-473.264960	223979.722515	223979.722515	669.297725	0.000000	0.000000	0.000000	
14.297443	2023.471788	2023.471788	-476.528212	-476.528212	227079.136482	227079.136482	673.912660	0.000000	0.000000	0.000000	
14.398361	2020.111918	2020.111918	-479.888082	-479.888082	230292.571265	230292.571265	678.664234	0.000000	0.000000	0.000000	
14.499174	2016.749182	2016.749182	-483.250818	-483.250818	233531.353139	233531.353139	683.419861	0.000000	0.000000	0.000000	
14.598356	2013.444635	2013.444635	-486.555365	-486.555365	236736.122806	236736.122806	688.093195	0.000000	0.000000	0.000000	
14.698905	2010.092806	2010.092806	-489.907194	-489.907194	240009.058820	240009.058820	692.833398	0.000000	0.000000	0.000000	
14.798333	2006.776540	2006.776540	-493.223460	-493.223460	243269.381288	243269.381288	697.523306	0.000000	0.000000	0.000000	
15.007044	2003.426486	2003.426486	-496.573514	-496.573514	246585.255117	246585.255117	702.260999	0.000000	0.000000	0.000000	
15.012378	1999.693420	1999.693420	-500.306580	-500.306580	250306.674065	250306.674065	707.540351	0.000000	0.000000	0.000000	
15.099324	1996.747612	1996.747612	-503.252388	-503.252388	253262.965751	253262.965751	711.706352	0.000000	0.000000	0.000000	
15.199918	1993.398114	1993.398114	-506.601886	-506.601886	256645.471131	256645.471131	716.443258	0.000000	0.000000	0.000000	
15.300000	1990.053897	1990.053897	-509.946103	-509.946103	260045.027512	260045.027512	721.172694	0.000000	0.000000	0.000000	
15.400826	1986.724138	1986.724138	-513.275862	-513.275862	263452.110923	263452.110923	725.881686	0.000000	0.000000	0.000000	
15.502079	1983.402718	1983.402718	-516.597282	-516.597282	266872.751736	266872.751736	730.578882	0.000000	0.000000	0.000000	
15.599388	1980.071932	1980.071932	-519.928068	-519.928068	270325.196215	270325.196215	735.289326	0.000000	0.000000	0.000000	
15.702702	1976.704555	1976.704555	-523.295445	-523.295445	273838.122702	273838.122702	740.051515	0.000000	0.000000	0.000000	
