AF-MATB V. 3.03
Programmed using MATLAB 7.5.0 and other Custom MATLAB Functions.

William Daniel Miller, Jr.
Air Force Research Laboratory
711th Human Performance Wing
Human Effectiveness Directorate
Applied Neuroscience Branch

RMS Center Coordinate (X,Y) is:	599.500000	565.500000	
Tracking Box X-Axis Lower Limit is:	449.500000	
Tracking Box X-Axis Upper Limit is:	749.500000	
Tracking Box Y-Axis Lower Limit is:	417.500000	
Tracking Box Y-Axis Upper Limit is:	717.500000	


Event Time	X Coordinates	Y Coordinates	X-Axis Difference	Y-Axis Difference	X-Axis Deviation	Y-Axis Deviation	Euclidian Distance From Target	X-Axis In Range?	y-Axis In Range?	Both In Range?
0.074040	601.484747	565.109251	1.984747	-0.390749	3.939219	0.152685	2.022846	1.000000	1.000000	1.000000	
0.140536	601.933399	556.908784	2.433399	-8.591216	5.921430	73.808988	8.929189	1.000000	1.000000	1.000000	
0.200773	602.423651	548.708317	2.923651	-16.791683	8.547735	281.960605	17.044305	1.000000	1.000000	1.000000	
0.305065	602.872303	540.507851	3.372303	-24.992149	11.372428	624.607536	25.218643	1.000000	1.000000	1.000000	
0.404340	603.320955	532.265784	3.820955	-33.234216	14.599699	1104.513138	33.453144	1.000000	1.000000	1.000000	
0.500805	603.730087	524.065317	4.230087	-41.434683	17.893640	1716.832976	41.650049	1.000000	1.000000	1.000000	
0.604373	604.139220	516.434770	4.639220	-49.065230	21.522359	2407.396808	49.284066	1.000000	1.000000	1.000000	
0.704277	606.626745	521.765611	7.126745	-43.734389	50.790500	1912.696820	44.311255	1.000000	1.000000	1.000000	
0.800782	609.074751	529.336611	9.574751	-36.163389	91.675860	1307.790687	37.409445	1.000000	1.000000	1.000000	
0.904538	611.441637	540.318812	11.941637	-25.181188	142.602692	634.092233	27.869247	1.000000	1.000000	1.000000	
1.004402	614.051883	551.219893	14.551883	-14.280107	211.757289	203.921467	20.388201	1.000000	1.000000	1.000000	
1.099866	616.581008	560.983213	17.081008	-4.516787	291.760849	20.401362	17.668113	1.000000	1.000000	1.000000	
1.204416	618.947894	570.218214	19.447894	4.718214	378.220588	22.261543	20.012050	1.000000	1.000000	1.000000	
1.305713	621.395900	579.089215	21.895900	13.589215	479.430434	184.666755	25.770083	1.000000	1.000000	1.000000	
1.401473	623.762786	587.024215	24.262786	21.524215	588.682770	463.291846	32.434158	1.000000	1.000000	1.000000	
1.500906	626.129671	591.824656	26.629671	26.324656	709.139402	692.987515	37.444985	1.000000	1.000000	1.000000	
1.604462	628.496557	594.424457	28.996557	28.924457	840.800330	836.624197	40.956373	1.000000	1.000000	1.000000	
1.703134	630.863443	595.066977	31.363443	29.566977	983.665555	874.206153	43.103036	1.000000	1.000000	1.000000	
1.804534	636.507692	587.560988	37.007692	22.060988	1369.569282	486.687179	43.084295	1.000000	1.000000	1.000000	
1.900896	642.151941	579.809558	42.651941	14.309558	1819.188108	204.763450	44.988349	1.000000	1.000000	1.000000	
2.001231	647.877311	574.098608	48.377311	8.598608	2340.364188	73.936065	49.135529	1.000000	1.000000	1.000000	
2.106578	653.602680	569.529579	54.102680	4.029579	2927.099973	16.237504	54.252534	1.000000	1.000000	1.000000	
2.204162	659.286449	565.572069	59.786449	0.072069	3574.419500	0.005194	59.786493	1.000000	1.000000	1.000000	
2.300809	664.849578	561.818399	65.349578	-3.681601	4270.567393	13.554184	65.453201	1.000000	1.000000	1.000000	
2.404319	667.933348	558.838490	68.433348	-6.661510	4683.123063	44.375722	68.756809	1.000000	1.000000	1.000000	
2.500833	669.434237	557.408180	69.934237	-8.091820	4890.797481	65.477554	70.400817	1.000000	1.000000	1.000000	
2.610254	670.893526	556.061070	71.393526	-9.438930	5097.035564	89.093397	72.014783	1.000000	1.000000	1.000000	
2.700779	672.271695	554.713960	72.771695	-10.786040	5295.719636	116.338650	73.566693	1.000000	1.000000	1.000000	
2.823422	662.616681	548.706504	63.116681	-16.793496	3983.715405	282.021519	65.312609	1.000000	1.000000	1.000000	
2.900753	652.961666	542.699047	53.461666	-22.800953	2858.149781	519.883461	58.120850	1.000000	1.000000	1.000000	
3.001078	643.306652	536.691590	43.806652	-28.808410	1919.022764	829.924478	52.430404	1.000000	1.000000	1.000000	
3.104494	633.693238	530.684133	34.193238	-34.815867	1169.177500	1212.144567	48.798792	1.000000	1.000000	1.000000	
3.200820	624.079823	524.676677	24.579823	-40.823323	604.167710	1666.543730	47.651983	1.000000	1.000000	1.000000	
3.300920	614.466409	518.669220	14.966409	-46.830780	223.993393	2193.121966	49.164167	1.000000	1.000000	1.000000	
3.404213	604.892514	512.661763	5.392514	-52.838237	29.079212	2791.879276	53.112696	1.000000	1.000000	1.000000	
3.500778	596.416860	506.654306	-3.083140	-58.845694	9.505752	3462.815659	58.926407	1.000000	1.000000	1.000000	
3.604478	586.823761	500.866406	-12.676239	-64.633594	160.687048	4177.501538	65.864927	1.000000	1.000000	1.000000	
3.730886	577.311781	495.078505	-22.188219	-70.421495	492.317061	4959.187010	73.834301	1.000000	1.000000	1.000000	
3.800748	567.718682	489.290604	-31.781318	-76.209396	1010.052201	5807.872075	82.570723	1.000000	1.000000	1.000000	
4.011089	558.125582	483.502703	-41.374418	-81.997297	1711.842457	6723.556732	91.844429	1.000000	1.000000	1.000000	
4.016290	548.532483	477.714802	-50.967517	-87.785198	2597.687828	7706.240983	101.508270	1.000000	1.000000	1.000000	
4.102172	538.939383	471.926901	-60.560617	-93.573099	3667.588313	8755.924827	111.460814	1.000000	1.000000	1.000000	
4.200833	529.346284	466.139000	-70.153716	-99.361000	4921.543914	9872.608264	121.631214	1.000000	1.000000	1.000000	
4.304360	519.672064	460.351099	-79.827936	-105.148901	6372.499333	11056.291293	132.018145	1.000000	1.000000	1.000000	
4.400817	510.160085	454.563199	-89.339915	-110.936801	7981.620460	12306.973916	142.438037	1.000000	1.000000	1.000000	
4.511856	500.566985	448.775298	-98.933015	-116.724702	9787.741406	13624.656131	153.011103	1.000000	1.000000	1.000000	
4.634519	491.094526	442.987397	-108.405474	-122.512603	11751.746839	15009.337940	163.588156	1.000000	1.000000	1.000000	
4.701369	491.622269	448.293932	-107.877731	-117.206068	11637.604943	13737.262424	159.294907	1.000000	1.000000	1.000000	
4.801030	492.801051	457.092787	-106.698949	-108.407213	11384.665651	11752.123878	152.107822	1.000000	1.000000	1.000000	
4.900849	494.019354	466.257722	-105.480646	-99.242278	11126.166665	9849.029789	144.828162	1.000000	1.000000	1.000000	
5.000771	495.562137	475.422657	-103.937863	-90.077343	10803.079399	8113.927767	137.539111	1.000000	1.000000	1.000000	
5.100612	497.186040	484.587592	-102.313960	-80.912408	10468.146493	6546.817812	130.441421	1.000000	1.000000	1.000000	
5.204993	498.809942	493.752527	-100.690058	-71.747473	10138.487707	5147.699923	123.637323	1.000000	1.000000	1.000000	
5.301251	490.052618	495.295043	-109.447382	-70.204957	11978.729470	4928.736025	130.028710	1.000000	1.000000	1.000000	
5.400872	481.172573	496.594199	-118.327427	-68.905801	14001.379922	4748.009446	136.928410	1.000000	1.000000	1.000000	
5.500857	472.373649	497.812235	-127.126351	-67.687765	16161.109197	4581.633563	144.023410	1.000000	1.000000	1.000000	
5.600849	463.493604	498.420831	-136.006396	-67.079169	18497.739717	4499.614943	151.648787	1.000000	1.000000	1.000000	
5.701267	454.694680	498.827667	-144.805320	-66.672333	20968.580823	4445.200015	159.417003	1.000000	1.000000	1.000000	
5.804449	445.895755	499.070183	-153.604245	-66.429817	23594.264076	4412.920612	167.353472	0.000000	1.000000	0.000000	
5.900866	437.096830	499.395899	-162.403170	-66.104101	26374.789476	4369.752192	175.341215	0.000000	1.000000	0.000000	
6.004962	428.470687	506.628485	-171.029313	-58.871515	29251.025880	3465.855299	180.878084	0.000000	1.000000	0.000000	
6.102095	419.763424	513.861071	-179.736576	-51.638929	32305.236864	2666.579008	187.007529	0.000000	1.000000	0.000000	
6.200840	411.137280	521.012537	-188.362720	-44.487463	35480.514172	1979.134381	193.544952	0.000000	1.000000	0.000000	
6.300849	402.511137	528.082883	-196.988863	-37.417117	38804.612179	1400.040660	200.510979	0.000000	1.000000	0.000000	
6.404550	393.803874	534.870349	-205.696126	-30.629651	42310.896445	938.175533	207.964112	0.000000	1.000000	0.000000	
6.501282	385.096610	541.576695	-214.403390	-23.923305	45968.813582	572.324532	215.733952	0.000000	1.000000	0.000000	
6.604428	383.568974	536.576109	-215.931026	-28.923891	46626.207923	836.591443	217.859586	0.000000	1.000000	0.000000	
6.706355	382.041338	531.575524	-217.458662	-33.924476	47288.269607	1150.870059	220.088936	0.000000	1.000000	0.000000	
6.804592	380.594822	526.574939	-218.905178	-38.925061	47919.476878	1515.160383	222.339014	0.000000	1.000000	0.000000	
6.900906	379.189906	521.574354	-220.310094	-43.925646	48536.537436	1929.462413	224.646388	0.000000	1.000000	0.000000	
7.004527	377.743390	516.573768	-221.756610	-48.926232	49175.993990	2393.776150	227.089784	0.000000	1.000000	0.000000	
7.101546	376.296874	514.822143	-223.203126	-50.677857	49819.635362	2568.245191	228.883989	0.000000	1.000000	0.000000	
7.204657	374.769238	517.093238	-224.730762	-48.406762	50503.915289	2343.214638	229.885036	0.000000	1.000000	0.000000	
7.300889	373.241602	523.060492	-226.258398	-42.439508	51192.862560	1801.111806	230.204201	0.000000	1.000000	0.000000	
7.404535	371.674446	533.822147	-227.825554	-31.677853	51904.482944	1003.486365	230.017324	0.000000	1.000000	0.000000	
7.500300	370.146810	546.857242	-229.353190	-18.642758	52602.885646	347.552434	230.109622	0.000000	1.000000	0.000000	
7.611376	373.440903	569.702145	-226.059097	4.202145	51102.715113	17.658023	226.098149	0.000000	1.000000	0.000000	
7.701247	376.653877	592.547048	-222.846123	27.047048	49660.394655	731.542828	224.481486	0.000000	1.000000	0.000000	
7.800751	379.866850	615.391952	-219.633150	49.891952	48238.720591	2489.206846	225.228611	0.000000	1.000000	0.000000	
7.904317	383.079823	629.136855	-216.420177	63.636855	46837.692921	4049.649318	225.582229	0.000000	1.000000	0.000000	
8.000186	386.373916	631.955518	-213.126084	66.455518	45422.727489	4416.335918	223.246643	0.000000	1.000000	0.000000	
8.106861	389.668010	634.000422	-209.831990	68.500422	44029.464157	4692.307766	220.730088	0.000000	1.000000	0.000000	
8.204742	392.962103	636.045325	-206.537897	70.545325	42657.902926	4976.642874	218.253398	0.000000	1.000000	0.000000	
8.300681	396.256196	638.090228	-203.243804	72.590228	41308.043796	5269.341240	215.817944	0.000000	1.000000	0.000000	
8.404194	399.591889	640.135132	-199.908111	74.635132	39963.252680	5570.402866	213.386165	0.000000	1.000000	0.000000	
8.504598	402.885983	642.180035	-196.614017	76.680035	38657.071819	5879.827751	211.037673	0.000000	1.000000	0.000000	
8.623848	406.180076	643.652938	-193.319924	78.152938	37372.593059	6107.881749	208.519723	0.000000	1.000000	0.000000	
8.700918	406.191495	636.797083	-193.308505	71.297083	37368.178112	5083.274066	206.037502	0.000000	1.000000	0.000000	
8.804498	406.284034	629.860108	-193.215966	64.360108	37332.409487	4142.223516	203.653218	0.000000	1.000000	0.000000	
8.900892	406.418173	622.881533	-193.081827	57.381533	37280.591851	3292.640337	201.427983	0.000000	1.000000	0.000000	
9.004399	406.510712	615.902958	-192.989288	50.402958	37244.865179	2540.458177	199.462586	0.000000	1.000000	0.000000	
9.104459	406.522131	608.924383	-192.977869	43.424383	37240.457784	1885.677037	197.803273	0.000000	1.000000	0.000000	
9.199924	406.614670	601.945808	-192.885330	36.445808	37204.750353	1328.296916	196.298363	0.000000	1.000000	0.000000	
9.304790	410.531797	597.864835	-188.968203	32.364835	35708.981596	1047.482548	191.719754	0.000000	1.000000	0.000000	
9.404338	414.448924	593.783862	-185.051076	28.283862	34243.900605	799.976859	187.200100	0.000000	1.000000	0.000000	
9.501088	418.366051	589.702889	-181.133949	24.202889	32809.507382	585.779850	182.743775	0.000000	1.000000	0.000000	
9.603946	422.283178	585.621916	-177.216822	20.121916	31405.801926	404.891520	178.355525	0.000000	1.000000	0.000000	
9.704424	426.200305	581.540944	-173.299695	16.040944	30032.784236	257.311869	174.040501	0.000000	1.000000	0.000000	
9.800759	430.117432	577.459971	-169.382568	11.959971	28690.454314	143.040898	169.804285	0.000000	1.000000	0.000000	
9.904700	431.944591	571.255776	-167.555409	5.755776	28074.814959	33.128959	167.654239	0.000000	1.000000	0.000000	
10.004370	433.813351	565.297022	-165.686649	-0.202978	27452.065767	0.041200	165.686774	0.000000	1.000000	0.000000	
10.101585	435.640510	562.593467	-163.859490	-2.906533	26849.932476	8.447934	163.885266	0.000000	1.000000	0.000000	
10.204236	437.386549	567.689913	-162.113451	2.189913	26280.770914	4.795717	162.128241	0.000000	1.000000	0.000000	
10.305141	439.132589	576.359798	-160.367411	10.859798	25717.706658	117.935213	160.734694	0.000000	1.000000	0.000000	
10.403431	440.839108	585.233523	-158.660892	19.733523	25173.278703	389.411950	159.883366	0.000000	1.000000	0.000000	
10.500637	442.666267	594.107249	-156.833733	28.607249	24596.819767	818.374694	159.421437	0.000000	1.000000	0.000000	
10.604115	444.493426	602.899854	-155.006574	37.399854	24027.037854	1398.749112	159.454655	0.000000	1.000000	0.000000	
10.700802	446.362186	611.692460	-153.137814	46.192460	23451.190166	2133.743353	159.952910	0.000000	1.000000	0.000000	
10.804020	448.189345	620.485065	-151.310655	54.985065	22894.914316	3023.357416	160.991527	0.000000	1.000000	0.000000	
10.905093	440.845511	630.193880	-158.654489	64.693880	25171.246953	4185.298149	171.337518	0.000000	1.000000	0.000000	
11.000659	433.501677	639.902695	-165.998323	74.402695	27555.443391	5535.761057	181.909880	0.000000	1.000000	0.000000	
11.104037	426.157842	649.611510	-173.342158	84.111510	30047.503633	7074.746138	192.671352	0.000000	1.000000	0.000000	
11.204100	418.772408	659.197605	-180.727592	93.697605	32662.462481	8779.241193	203.572355	0.000000	1.000000	0.000000	
11.321277	411.386974	667.483700	-188.113026	101.983700	35386.510608	10400.675060	213.979405	0.000000	1.000000	0.000000	
11.400551	404.043140	675.769795	-195.456860	110.269795	38203.384270	12159.427665	224.416604	0.000000	1.000000	0.000000	
11.504397	396.657705	684.055890	-202.842295	118.555890	41144.996483	14055.499007	234.947857	0.000000	1.000000	0.000000	
11.600829	389.272271	692.341985	-210.227729	126.841985	44195.697974	16088.889088	245.529198	0.000000	1.000000	0.000000	
11.700583	389.494540	711.764099	-210.005460	146.264099	44102.293240	21393.186524	255.920847	0.000000	1.000000	0.000000	
11.805539	389.635689	723.000000	-209.864311	157.500000	44043.029119	24806.250000	262.391462	0.000000	0.000000	0.000000	
11.900667	389.857958	723.000000	-209.642042	157.500000	43949.785939	24806.250000	262.213722	0.000000	0.000000	0.000000	
12.004252	390.080226	723.000000	-209.419774	157.500000	43856.641565	24806.250000	262.036050	0.000000	0.000000	0.000000	
12.106790	390.302495	723.000000	-209.197505	157.500000	43763.595998	24806.250000	261.858446	0.000000	0.000000	0.000000	
12.200503	390.566364	723.000000	-208.933636	157.500000	43653.264228	24806.250000	261.647691	0.000000	0.000000	0.000000	
12.300553	390.830233	723.000000	-208.669767	157.500000	43543.071713	24806.250000	261.437032	0.000000	0.000000	0.000000	
12.404171	391.094102	723.000000	-208.405898	157.500000	43433.018451	24806.250000	261.226470	0.000000	0.000000	0.000000	
12.500752	382.000716	723.000000	-217.499284	157.500000	47305.938333	24806.250000	268.537127	0.000000	0.000000	0.000000	
12.641211	372.867811	723.000000	-226.632189	157.500000	51362.148971	24806.250000	275.986230	0.000000	0.000000	0.000000	
12.701148	363.774426	723.000000	-235.725574	157.500000	55566.546214	24806.250000	283.500963	0.000000	0.000000	0.000000	
12.811797	354.641521	723.000000	-244.858479	157.500000	59955.674817	24806.250000	291.139013	0.000000	0.000000	0.000000	
12.900699	345.508616	723.000000	-253.991384	157.500000	64511.623337	24806.250000	298.860960	0.000000	0.000000	0.000000	
13.006270	341.468200	723.000000	-258.031800	157.500000	66580.409985	24806.250000	302.302266	0.000000	0.000000	0.000000	
13.101083	337.427784	723.000000	-262.072216	157.500000	68681.846556	24806.250000	305.758232	0.000000	0.000000	0.000000	
13.204171	333.387368	723.000000	-266.112632	157.500000	70815.933049	24806.250000	309.228367	0.000000	0.000000	0.000000	
13.304190	329.346952	723.000000	-270.153048	157.500000	72982.669465	24806.250000	312.712199	0.000000	0.000000	0.000000	
13.400626	325.264936	723.000000	-274.235064	157.500000	75204.870429	24806.250000	316.245348	0.000000	0.000000	0.000000	
13.522354	321.224520	721.577080	-278.275480	156.077080	77437.242852	24360.054963	319.056888	0.000000	0.000000	0.000000	
13.602566	317.142504	719.910800	-282.357496	154.410800	79725.755610	23842.695279	321.820526	0.000000	0.000000	0.000000	
13.704206	313.060488	718.325641	-286.439512	152.825641	82047.594077	23355.676423	324.658698	0.000000	0.000000	0.000000	
13.800646	309.020072	716.659361	-290.479928	151.159361	84378.588591	22849.152354	327.456472	0.000000	1.000000	0.000000	
13.904226	300.134798	717.856122	-299.365202	152.356122	89619.524367	23212.387961	335.904618	0.000000	0.000000	0.000000	
14.000606	291.291123	719.052884	-308.208877	153.552884	94992.711632	23578.488044	344.341690	0.000000	0.000000	0.000000	
14.106883	282.405849	720.249645	-317.094151	154.749645	100548.700550	23947.452602	352.840124	0.000000	0.000000	0.000000	
14.203953	273.439455	721.446406	-326.060545	155.946406	106315.479149	24319.281636	361.434310	0.000000	0.000000	0.000000	
14.399097	264.554180	722.724288	-334.945820	157.224288	112188.702012	24719.476633	370.011052	0.000000	0.000000	0.000000	
14.402843	256.000000	723.000000	-343.500000	157.500000	117992.250000	24806.250000	377.886888	0.000000	0.000000	0.000000	
14.500924	264.554180	722.643168	-334.945820	157.143168	112188.702012	24693.975145	369.976590	0.000000	0.000000	0.000000	
14.600564	256.000000	723.000000	-343.500000	157.500000	117992.250000	24806.250000	377.886888	0.000000	0.000000	0.000000	
14.700769	259.356634	723.000000	-340.143366	157.500000	115697.509232	24806.250000	374.838311	0.000000	0.000000	0.000000	
14.800517	262.713269	723.000000	-336.786731	157.500000	113425.302452	24806.250000	371.795041	0.000000	0.000000	0.000000	
14.903940	266.069903	723.000000	-333.430097	157.500000	111175.629660	24806.250000	368.757210	0.000000	0.000000	0.000000	
15.000932	256.919112	723.000000	-342.580888	157.500000	117361.664680	24806.250000	377.051607	0.000000	0.000000	0.000000	
15.104296	256.000000	723.000000	-343.500000	157.500000	117992.250000	24806.250000	377.886888	0.000000	0.000000	0.000000	
15.211211	259.582631	723.000000	-339.917369	157.500000	115543.817965	24806.250000	374.633245	0.000000	0.000000	0.000000	
15.300888	263.125741	723.000000	-336.374259	157.500000	113147.641875	24806.250000	371.421448	0.000000	0.000000	0.000000	
15.404546	266.912212	723.000000	-332.587788	157.500000	110614.636699	24806.250000	367.995770	0.000000	0.000000	0.000000	
15.500732	270.698683	723.000000	-328.801317	157.500000	108110.306244	24806.250000	364.577229	0.000000	0.000000	0.000000	
15.604340	274.485153	723.000000	-325.014847	157.500000	105634.650509	24806.250000	361.166029	0.000000	0.000000	0.000000	
15.713731	279.205544	723.000000	-320.294456	157.500000	102588.538492	24806.250000	356.924065	0.000000	0.000000	0.000000	
15.800341	288.000655	723.000000	-311.499345	157.500000	97031.842084	24806.250000	349.053136	0.000000	0.000000	0.000000	
15.900645	297.733845	723.000000	-301.766155	157.500000	91062.812036	24806.250000	340.395449	0.000000	0.000000	0.000000	
16.000595	307.833116	723.000000	-291.666884	157.500000	85069.571151	24806.250000	331.475220	0.000000	0.000000	0.000000	
16.101861	308.058128	716.706894	-291.441872	151.206894	84938.364838	22863.524731	328.331981	0.000000	1.000000	0.000000	
16.200757	309.017380	709.966588	-290.482620	144.466588	84380.152759	20870.594931	324.423716	0.000000	1.000000	0.000000	
16.300641	309.976631	703.145161	-289.523369	137.645161	83823.781008	18946.190454	320.577559	0.000000	1.000000	0.000000	
