AF-MATB V. 3.03
Programmed using MATLAB 7.5.0 and other Custom MATLAB Functions.

William Daniel Miller, Jr.
Air Force Research Laboratory
711th Human Performance Wing
Human Effectiveness Directorate
Applied Neuroscience Branch

RMS Center Coordinate (X,Y) is:	599.500000	565.500000	
Tracking Box X-Axis Lower Limit is:	449.500000	
Tracking Box X-Axis Upper Limit is:	749.500000	
Tracking Box Y-Axis Lower Limit is:	417.500000	
Tracking Box Y-Axis Upper Limit is:	717.500000	


Event Time	X Coordinates	Y Coordinates	X-Axis Difference	Y-Axis Difference	X-Axis Deviation	Y-Axis Deviation	Euclidian Distance From Target	X-Axis In Range?	y-Axis In Range?	Both In Range?
0.090055	592.753269	569.084365	-6.746731	3.584365	45.518376	12.847669	7.639767	1.000000	1.000000	1.000000	
0.141799	586.087658	573.118009	-13.412342	7.618009	179.890906	58.034061	15.424817	1.000000	1.000000	1.000000	
0.200784	579.340928	577.191174	-20.159072	11.691174	406.388197	136.683538	23.303900	1.000000	1.000000	1.000000	
0.304257	572.675317	581.345458	-26.824683	15.845458	719.563624	251.078540	31.155131	1.000000	1.000000	1.000000	
0.400846	566.009706	585.541343	-33.490294	20.041343	1121.599784	401.655410	39.028902	1.000000	1.000000	1.000000	
0.500487	559.344095	589.695627	-40.155905	24.195627	1612.496679	585.428368	46.882033	1.000000	1.000000	1.000000	
0.604081	552.597365	593.849912	-46.902635	28.349912	2199.857211	803.717484	54.804878	1.000000	1.000000	1.000000	
0.700676	548.735594	597.107716	-50.764406	31.607716	2577.024938	999.047714	59.800273	1.000000	1.000000	1.000000	
0.800588	550.053023	593.840561	-49.446977	28.340561	2445.003533	803.187372	56.992902	1.000000	1.000000	1.000000	
0.903933	551.532692	590.492285	-47.967308	24.992285	2300.862614	624.614312	54.087678	1.000000	1.000000	1.000000	
1.000328	553.093481	586.451370	-46.406519	20.951370	2153.564963	438.959886	50.916842	1.000000	1.000000	1.000000	
1.112397	563.441389	573.676388	-36.058611	8.176388	1300.223451	66.853324	36.974001	1.000000	1.000000	1.000000	
1.200645	573.870416	561.024127	-25.629584	-4.475873	656.875583	20.033441	26.017475	1.000000	1.000000	1.000000	
1.300638	583.974963	550.245945	-15.525037	-15.254055	241.026772	232.686180	21.764948	1.000000	1.000000	1.000000	
1.400698	592.120150	541.304404	-7.379850	-24.195596	54.462182	585.426861	25.296028	1.000000	1.000000	1.000000	
1.500325	599.980377	532.770543	0.480377	-32.729457	0.230763	1071.217374	32.732982	1.000000	1.000000	1.000000	
1.600648	598.333426	533.507739	-1.166574	-31.992261	1.360896	1023.504745	32.013523	1.000000	1.000000	1.000000	
1.700766	596.686474	534.244936	-2.813526	-31.255064	7.915931	976.879033	31.381443	1.000000	1.000000	1.000000	
1.800679	595.039522	534.412212	-4.460478	-31.087788	19.895868	966.450534	31.406152	1.000000	1.000000	1.000000	
1.900412	593.392570	534.579489	-6.107430	-30.920511	37.300706	956.077998	31.517911	1.000000	1.000000	1.000000	
2.000356	591.745618	534.746766	-7.754382	-30.753234	60.130445	945.761425	31.715798	1.000000	1.000000	1.000000	
2.105842	600.369673	527.928635	0.869673	-37.571365	0.756331	1411.607444	37.581429	1.000000	1.000000	1.000000	
2.200541	608.871009	521.191625	9.371009	-44.308375	87.815802	1963.232094	45.288496	1.000000	1.000000	1.000000	
2.300464	617.495064	513.884695	17.995064	-51.615305	323.822331	2664.139741	54.662255	1.000000	1.000000	1.000000	
2.403977	626.119120	505.190404	26.619120	-60.309596	708.577524	3637.247321	65.922870	1.000000	1.000000	1.000000	
2.500227	634.743175	496.496114	35.243175	-69.003886	1242.081384	4761.536270	77.483015	1.000000	1.000000	1.000000	
2.600987	643.367230	487.801824	43.867230	-77.698176	1924.333908	6037.006586	89.226344	1.000000	1.000000	1.000000	
2.703987	640.891639	485.130096	41.391639	-80.369904	1713.267813	6459.321396	90.402374	1.000000	1.000000	1.000000	
2.800453	638.293328	482.499969	38.793328	-83.000031	1504.922324	6889.005128	91.618379	1.000000	1.000000	1.000000	
2.914270	635.817737	479.869842	36.317737	-85.630158	1318.978042	7332.523999	93.013451	1.000000	1.000000	1.000000	
3.000324	633.138306	477.239714	33.638306	-88.260286	1131.535646	7789.878009	94.453235	1.000000	1.000000	1.000000	
3.100443	630.458875	474.609587	30.958875	-90.890413	958.451952	8261.067160	96.018327	1.000000	1.000000	1.000000	
3.200419	635.920487	472.586187	36.420487	-92.913813	1326.451875	8632.976601	99.796936	1.000000	1.000000	1.000000	
3.304053	641.585939	470.481667	42.085939	-95.018333	1771.226250	9028.483530	103.921652	1.000000	1.000000	1.000000	
3.400723	647.251391	468.458268	47.751391	-97.041732	2280.195314	9417.097835	108.154025	1.000000	1.000000	1.000000	
3.501167	652.916843	466.434868	53.416843	-99.065132	2853.359067	9813.900434	112.548920	1.000000	1.000000	1.000000	
3.624925	658.582294	464.411468	59.082294	-101.088532	3490.717510	10218.891327	117.088039	1.000000	1.000000	1.000000	
3.700349	664.125026	462.429668	64.625026	-103.070332	4176.394014	10623.493332	121.654788	1.000000	1.000000	1.000000	
3.800646	669.790478	460.325148	70.290478	-105.174852	4940.751306	11061.749453	126.500991	1.000000	1.000000	1.000000	
3.903987	675.333210	458.343348	75.833210	-107.156652	5750.675724	11482.547993	131.275374	1.000000	1.000000	1.000000	
4.001112	683.614938	451.008507	84.114938	-114.491493	7075.322797	13108.302063	142.069085	1.000000	1.000000	1.000000	
4.103863	691.773946	443.673665	92.273946	-121.826335	8514.481133	14841.655941	152.827148	1.000000	1.000000	1.000000	
4.200341	700.055674	436.297223	100.555674	-129.202777	10111.443620	16693.357567	163.721719	1.000000	1.000000	1.000000	
4.303891	708.214682	428.920781	108.714682	-136.579219	11818.882156	18653.882978	174.564501	1.000000	1.000000	1.000000	
4.401735	716.373690	421.585940	116.873690	-143.914060	13659.459518	20711.256795	185.393410	1.000000	1.000000	1.000000	
4.503941	724.532699	414.251098	125.032699	-151.248902	15633.175707	22876.230420	196.238136	1.000000	0.000000	0.000000	
4.603732	732.610587	408.000000	133.110587	-157.500000	17718.428281	24806.250000	206.215126	1.000000	0.000000	0.000000	
4.700165	728.092471	408.000000	128.592471	-157.500000	16536.023494	24806.250000	203.327995	1.000000	0.000000	0.000000	
4.800527	723.574355	408.000000	124.074355	-157.500000	15394.445451	24806.250000	200.501111	1.000000	0.000000	0.000000	
4.900359	719.056238	408.000000	119.556238	-157.500000	14293.694155	24806.250000	197.737058	1.000000	0.000000	0.000000	
5.000464	714.741962	408.000000	115.241962	-157.500000	13280.709896	24806.250000	195.158807	1.000000	0.000000	0.000000	
5.104329	710.223846	408.000000	110.723846	-157.500000	12259.770145	24806.250000	192.525375	1.000000	0.000000	0.000000	
5.200522	705.705730	408.000000	106.205730	-157.500000	11279.657140	24806.250000	189.962910	1.000000	0.000000	0.000000	
5.301252	701.310334	408.000000	101.810334	-157.500000	10365.344149	24806.250000	187.540913	1.000000	0.000000	0.000000	
5.435281	696.914938	408.000000	97.414938	-157.500000	9489.670170	24806.250000	185.191577	1.000000	0.000000	0.000000	
5.501523	692.396822	408.000000	92.896822	-157.500000	8629.819549	24806.250000	182.855324	1.000000	0.000000	0.000000	
5.600478	687.878706	408.000000	88.378706	-157.500000	7810.795673	24806.250000	180.601898	1.000000	0.000000	0.000000	
5.704025	683.358566	408.000000	83.858566	-157.500000	7032.259171	24806.250000	178.433487	1.000000	0.000000	0.000000	
5.800652	679.123387	408.000000	79.623387	-157.500000	6339.883750	24806.250000	176.482673	1.000000	0.000000	0.000000	
5.901861	674.888207	408.000000	75.388207	-157.500000	5683.381820	24806.250000	174.612805	1.000000	0.000000	0.000000	
6.003708	670.449188	408.000000	70.949188	-157.500000	5033.787265	24806.250000	172.742691	1.000000	0.000000	0.000000	
6.107674	666.091288	408.000000	66.591288	-157.500000	4434.399690	24806.250000	170.998976	1.000000	0.000000	0.000000	
6.202891	661.856109	408.000000	62.356109	-157.500000	3888.284314	24806.250000	169.394611	1.000000	0.000000	0.000000	
6.303777	657.498209	408.000000	57.998209	-157.500000	3363.792288	24806.250000	167.839335	1.000000	0.000000	0.000000	
6.400394	653.140310	408.000000	53.640310	-157.500000	2877.282839	24806.250000	166.383692	1.000000	0.000000	0.000000	
6.502751	648.905130	408.000000	49.405130	-157.500000	2440.866901	24806.250000	165.067007	1.000000	0.000000	0.000000	
6.602920	644.751071	408.000000	45.251071	-157.500000	2047.659408	24806.250000	163.871625	1.000000	0.000000	0.000000	
6.700934	640.515891	408.000000	41.015891	-157.500000	1682.303337	24806.250000	162.753044	1.000000	0.000000	0.000000	
6.803101	638.082078	408.000000	38.582078	-157.500000	1488.576722	24806.250000	162.156797	1.000000	0.000000	0.000000	
6.903842	635.648264	408.000000	36.148264	-157.500000	1306.697004	24806.250000	161.595009	1.000000	0.000000	0.000000	
7.000266	632.767251	409.729806	33.267251	-155.770194	1106.709965	24264.353290	159.282966	1.000000	0.000000	0.000000	
7.102984	629.599197	413.213052	30.099197	-152.286948	905.961666	23191.314436	155.232974	1.000000	0.000000	0.000000	
7.203916	626.512264	416.900138	27.012264	-148.599862	729.662382	22081.918848	151.035033	1.000000	0.000000	0.000000	
7.300272	623.344210	422.463385	23.844210	-143.036615	568.546351	20459.473339	145.010412	1.000000	1.000000	1.000000	
7.400463	620.257276	432.494471	20.757276	-133.005529	430.864527	17690.470804	134.615509	1.000000	1.000000	1.000000	
7.500328	617.008103	443.216117	17.508103	-122.283883	306.533668	14953.348058	123.530894	1.000000	1.000000	1.000000	
7.600749	613.921169	453.937763	14.421169	-111.562237	207.970126	12446.132704	112.490457	1.000000	1.000000	1.000000	
7.700275	610.917436	464.659409	11.417436	-100.840591	130.357841	10168.824744	101.484888	1.000000	1.000000	1.000000	
7.803830	607.913702	475.381055	8.413702	-90.118945	70.790386	8121.424176	90.510853	1.000000	1.000000	1.000000	
7.900432	616.776082	482.230306	17.276082	-83.269694	298.463006	6933.842015	85.042960	1.000000	1.000000	1.000000	
8.002664	625.800701	489.079556	26.300701	-76.420444	691.726898	5840.084310	80.819621	1.000000	1.000000	1.000000	
8.106688	634.908521	494.547686	35.408521	-70.952314	1253.763364	5034.230888	79.296874	1.000000	1.000000	1.000000	
8.200527	643.852021	496.847976	44.352021	-68.652024	1967.101736	4713.100405	81.732504	1.000000	1.000000	1.000000	
8.301604	652.795520	497.683946	53.295520	-67.816054	2840.412478	4599.017167	86.252128	1.000000	1.000000	1.000000	
8.404364	656.008540	491.727155	56.508540	-73.772845	3193.215107	5442.432704	92.928186	1.000000	1.000000	1.000000	
8.500366	658.895000	485.770363	59.395000	-79.729637	3527.766026	6356.814968	99.421230	1.000000	1.000000	1.000000	
8.600592	661.781460	479.813572	62.281460	-85.686428	3878.980246	7342.163961	105.929902	1.000000	1.000000	1.000000	
8.703945	664.382960	473.856781	64.882960	-91.643219	4209.798468	8398.479680	112.286589	1.000000	1.000000	1.000000	
8.822423	666.778540	467.899989	67.278540	-97.600011	4526.401897	9525.762127	118.541824	1.000000	1.000000	1.000000	
8.902723	668.360840	461.943198	68.860840	-103.556802	4741.815221	10724.011302	124.361676	1.000000	1.000000	1.000000	
9.000438	666.001539	455.986406	66.501539	-109.513594	4422.454744	11993.227204	128.123698	1.000000	1.000000	1.000000	
9.100336	663.074399	450.029615	63.574399	-115.470385	4041.704245	13333.409834	131.814696	1.000000	1.000000	1.000000	
9.200440	660.066139	444.765464	60.566139	-120.734536	3668.257214	14576.828303	135.074370	1.000000	1.000000	1.000000	
9.300321	657.057879	440.882432	57.557879	-124.617568	3312.909441	15529.538228	137.267795	1.000000	1.000000	1.000000	
9.400471	658.086821	444.892053	58.586821	-120.607947	3432.415610	14546.276902	134.084647	1.000000	1.000000	1.000000	
9.500339	659.278003	449.592234	59.778003	-115.907766	3573.409667	13434.610287	130.414800	1.000000	1.000000	1.000000	
9.605731	660.469185	454.211295	60.969185	-111.288705	3717.241554	12385.175970	126.895301	1.000000	1.000000	1.000000	
9.700540	661.620847	458.830355	62.120847	-106.669645	3858.999677	11378.413098	123.439916	1.000000	1.000000	1.000000	
9.802385	662.772509	463.449416	63.272509	-102.050584	4003.410451	10414.321672	120.073861	1.000000	1.000000	1.000000	
9.900148	663.963692	468.068477	64.463692	-97.431523	4155.567524	9492.901691	116.826663	1.000000	1.000000	1.000000	
10.003860	665.154874	472.768658	65.654874	-92.731342	4310.562427	8599.101842	113.620704	1.000000	1.000000	1.000000	
10.105980	659.341583	469.694463	59.841583	-95.805537	3581.015114	9178.700907	112.958913	1.000000	1.000000	1.000000	
10.222655	653.528293	466.620268	54.028293	-98.879732	2919.056484	9777.201317	112.677672	1.000000	1.000000	1.000000	
10.299895	647.633883	463.627194	48.133883	-101.872806	2316.870717	10378.068647	112.671822	1.000000	1.000000	1.000000	
10.400355	647.715003	463.546074	48.215003	-101.953926	2324.686539	10394.603072	112.779828	1.000000	1.000000	1.000000	
10.502484	641.901713	463.032359	42.401713	-102.467641	1797.905277	10499.617425	110.894196	1.000000	1.000000	1.000000	
10.599487	636.007303	467.920404	36.507303	-97.579596	1332.783174	9521.777460	104.185223	1.000000	1.000000	1.000000	
10.700071	629.743164	488.727680	30.243164	-76.772320	914.648970	5893.989168	82.514472	1.000000	1.000000	1.000000	
10.803878	623.479025	509.534955	23.979025	-55.965045	574.993640	3132.086278	60.885794	1.000000	1.000000	1.000000	
10.899403	617.214886	530.342230	17.714886	-35.157770	313.817186	1236.068789	39.368591	1.000000	1.000000	1.000000	
10.999729	611.031867	551.149505	11.531867	-14.350495	132.983956	205.936700	18.409798	1.000000	1.000000	1.000000	
11.102437	604.767728	571.428460	5.267728	5.928460	27.748958	35.146643	7.930675	1.000000	1.000000	1.000000	
11.199528	604.911528	575.161343	5.411528	9.661343	29.284638	93.341542	11.073671	1.000000	1.000000	1.000000	
11.301641	605.055328	578.530225	5.555328	13.030225	30.861674	169.786762	14.165043	1.000000	1.000000	1.000000	
11.405205	605.484089	578.729187	5.984089	13.229187	35.809317	175.011395	14.519666	1.000000	1.000000	1.000000	
11.499280	607.092209	573.769750	7.592209	8.269750	57.641636	68.388757	11.226326	1.000000	1.000000	1.000000	
11.600966	609.024809	565.305512	9.524809	-0.194488	90.721989	0.037826	9.526795	1.000000	1.000000	1.000000	
11.702867	612.014049	553.373914	12.514049	-12.126086	156.601431	147.041960	17.425366	1.000000	1.000000	1.000000	
11.799300	615.003290	539.607756	15.503290	-25.892244	240.351987	670.408282	30.178805	1.000000	1.000000	1.000000	
11.993112	618.931312	526.972298	19.431312	-38.527702	377.575905	1484.383785	43.150431	1.000000	1.000000	1.000000	
12.049494	622.819815	514.336841	23.319815	-51.163159	543.813790	2617.668879	56.227063	1.000000	1.000000	1.000000	
12.105176	626.747838	501.701383	27.247838	-63.798617	742.444693	4070.263564	69.373686	1.000000	1.000000	1.000000	
12.201444	630.675861	489.065925	31.175861	-76.434075	971.934323	5842.167840	82.547575	1.000000	1.000000	1.000000	
12.300222	634.603884	476.430467	35.103884	-89.069533	1232.282682	7933.381707	95.737476	1.000000	1.000000	1.000000	
12.447657	638.531907	463.795009	39.031907	-101.704991	1523.489769	10343.905165	108.937574	1.000000	1.000000	1.000000	
12.500812	642.459930	451.159551	42.959930	-114.340449	1845.555584	13073.738213	122.144561	1.000000	1.000000	1.000000	
12.600561	646.267313	438.727933	46.767313	-126.772067	2187.181556	16071.156866	135.123419	1.000000	1.000000	1.000000	
12.703830	649.910376	428.334716	50.410376	-137.165284	2541.205990	18814.315258	146.135284	1.000000	1.000000	1.000000	
12.801437	653.943449	424.310447	54.443449	-141.189553	2964.089180	19934.489940	151.322765	1.000000	1.000000	1.000000	
12.903783	657.814283	421.101538	58.314283	-144.398462	3400.555596	20850.915829	155.728839	1.000000	1.000000	1.000000	
13.000314	661.685117	419.238389	62.185117	-146.261611	3866.988716	21392.458788	158.932210	1.000000	1.000000	1.000000	
13.100556	665.555950	418.271720	66.055950	-147.228280	4363.388541	21676.166301	161.367763	1.000000	1.000000	1.000000	
13.204390	669.304064	417.346652	69.804064	-148.153348	4872.607302	21949.414622	163.774302	1.000000	0.000000	0.000000	
13.300738	673.093777	416.379983	73.593777	-149.120017	5416.044044	22236.779502	166.291381	1.000000	0.000000	0.000000	
13.400393	676.151331	415.454914	76.651331	-150.045086	5875.426510	22513.527798	168.490220	1.000000	0.000000	0.000000	
13.500700	677.299444	414.529845	77.799444	-150.970155	6052.753541	22791.987598	169.837396	1.000000	0.000000	0.000000	
13.603485	677.756998	413.685897	78.256998	-151.814103	6124.157722	23047.522002	170.797189	1.000000	0.000000	0.000000	
13.701571	678.175031	412.841948	78.675031	-152.658052	6189.760578	23304.480906	171.738876	1.000000	0.000000	0.000000	
13.800563	678.350061	408.000000	78.850061	-157.500000	6217.332105	24806.250000	176.135125	1.000000	0.000000	0.000000	
13.900330	678.404450	410.632095	78.904450	-154.867905	6225.912282	23984.068145	173.810185	1.000000	0.000000	0.000000	
14.001459	678.458840	413.590749	78.958840	-151.909251	6234.498375	23076.420522	171.204319	1.000000	0.000000	0.000000	
14.100245	678.471629	416.549404	78.971629	-148.950596	6236.518215	22186.280172	168.590624	1.000000	0.000000	0.000000	
14.200210	678.526019	419.424858	79.026019	-146.075142	6245.111616	21337.947076	166.081482	1.000000	1.000000	1.000000	
14.300354	678.538808	422.383513	79.038808	-143.116487	6247.133174	20482.328953	163.491474	1.000000	1.000000	1.000000	
14.400453	678.551597	425.258967	79.051597	-140.241033	6249.155060	19667.547288	160.986653	1.000000	1.000000	1.000000	
14.504319	678.605987	428.134422	79.105987	-137.365578	6257.757160	18869.302101	158.515170	1.000000	1.000000	1.000000	
14.601641	676.548020	420.812194	77.048020	-144.687806	5936.397422	20934.561102	163.923636	1.000000	1.000000	1.000000	
14.700166	674.448454	413.450447	74.948454	-152.049553	5617.270696	23119.066566	169.517956	1.000000	0.000000	0.000000	
14.803728	672.348887	408.000000	72.848887	-157.500000	5306.960331	24806.250000	173.531583	1.000000	0.000000	0.000000	
14.900228	670.290920	413.240147	70.790920	-152.259853	5011.354399	23183.062730	167.911933	1.000000	0.000000	0.000000	
15.003455	668.232954	418.519815	68.732954	-146.980185	4724.218921	21603.174872	162.257184	1.000000	1.000000	1.000000	
15.100403	666.174987	423.759962	66.674987	-141.740038	4445.553896	20090.238360	156.639051	1.000000	1.000000	1.000000	
15.200209	664.117020	429.039629	64.617020	-136.460371	4175.359324	18621.432746	150.986066	1.000000	1.000000	1.000000	
15.303886	662.017454	434.402497	62.517454	-131.097503	3908.432024	17186.555361	145.241135	1.000000	1.000000	1.000000	
15.404247	659.917887	439.682164	60.417887	-125.817836	3650.321083	15830.127833	139.572379	1.000000	1.000000	1.000000	
15.501196	657.818320	444.961831	58.318320	-120.538169	3401.026503	14529.450080	133.904730	1.000000	1.000000	1.000000	
15.605501	656.608756	440.292980	57.108756	-125.207020	3261.409983	15676.797823	137.616161	1.000000	1.000000	1.000000	
15.700318	655.357591	435.624129	55.857591	-129.875871	3120.070475	16867.741910	141.378260	1.000000	1.000000	1.000000	
15.801307	654.106426	430.915758	54.606426	-134.584242	2981.861793	18112.918320	145.240422	1.000000	1.000000	1.000000	
15.900237	652.855262	426.246906	53.355262	-139.253094	2846.783938	19391.424123	149.124807	1.000000	1.000000	1.000000	
16.006786	651.645697	421.578055	52.145697	-143.921945	2719.173700	20713.526272	153.077431	1.000000	1.000000	1.000000	
16.100315	642.819333	415.046431	43.319333	-150.453569	1876.564589	22636.276416	156.565772	1.000000	0.000000	0.000000	
16.200232	634.034569	408.554327	34.534569	-156.945673	1192.636430	24631.944234	160.700282	1.000000	0.000000	0.000000	
16.301195	625.249805	408.000000	25.749805	-157.500000	663.052432	24806.250000	159.591047	1.000000	0.000000	0.000000	
16.401647	616.423440	412.653384	16.923440	-152.846616	286.402835	23362.088052	153.780658	1.000000	0.000000	0.000000	
