AF-MATB V. 3.03
Programmed using MATLAB 7.5.0 and other Custom MATLAB Functions.

William Daniel Miller, Jr.
Air Force Research Laboratory
711th Human Performance Wing
Human Effectiveness Directorate
Applied Neuroscience Branch

RMS Center Coordinate (X,Y) is:	599.500000	565.500000	
Tracking Box X-Axis Lower Limit is:	449.500000	
Tracking Box X-Axis Upper Limit is:	749.500000	
Tracking Box Y-Axis Lower Limit is:	417.500000	
Tracking Box Y-Axis Upper Limit is:	717.500000	


Event Time	X Coordinates	Y Coordinates	X-Axis Difference	Y-Axis Difference	X-Axis Deviation	Y-Axis Deviation	Euclidian Distance From Target	X-Axis In Range?	y-Axis In Range?	Both In Range?
0.105154	592.425255	565.316961	-7.074745	-0.183039	50.052010	0.033503	7.077112	1.000000	1.000000	1.000000	
0.113364	585.350511	565.133921	-14.149489	-0.366079	200.208040	0.134014	14.154224	1.000000	1.000000	1.000000	
0.202521	578.275766	564.950882	-21.224234	-0.549118	450.468089	0.301531	21.231336	1.000000	1.000000	1.000000	
0.298556	571.201022	564.686722	-28.298978	-0.813278	800.832158	0.661421	28.310662	1.000000	1.000000	1.000000	
0.399941	564.126277	564.503683	-35.373723	-0.996317	1251.300247	0.992648	35.387751	1.000000	1.000000	1.000000	
0.500068	557.051533	564.320643	-42.448467	-1.179357	1801.872356	1.390883	42.464847	1.000000	1.000000	1.000000	
0.598369	549.976788	564.137604	-49.523212	-1.362396	2452.548485	1.856124	49.541948	1.000000	1.000000	1.000000	
0.698315	542.902044	563.954564	-56.597956	-1.545436	3203.328633	2.388372	56.619052	1.000000	1.000000	1.000000	
0.802183	548.610469	564.340054	-50.889531	-1.159946	2589.744375	1.345474	50.902749	1.000000	1.000000	1.000000	
0.898468	554.318894	564.725544	-45.181106	-0.774456	2041.332348	0.599782	45.187743	1.000000	1.000000	1.000000	
0.998127	560.066839	565.029914	-39.433161	-0.470086	1554.974194	0.220981	39.435963	1.000000	1.000000	1.000000	
1.114181	565.775264	565.415404	-33.724736	-0.084596	1137.357825	0.007156	33.724842	1.000000	1.000000	1.000000	
1.198358	571.483689	565.800894	-28.016311	0.300894	784.913688	0.090537	28.017927	1.000000	1.000000	1.000000	
1.299585	570.594055	572.715121	-28.905945	7.215121	835.553644	52.057971	29.792811	1.000000	1.000000	1.000000	
1.399888	569.704422	579.752068	-29.795578	14.252068	887.776496	203.121437	33.028744	1.000000	1.000000	1.000000	
1.499917	568.814788	586.747415	-30.685212	21.247415	941.582244	451.452628	37.323382	1.000000	1.000000	1.000000	
1.599975	567.925154	593.742761	-31.574846	28.242761	996.970888	797.653573	42.363008	1.000000	1.000000	1.000000	
1.702557	567.035521	600.738108	-32.464479	35.238108	1053.942429	1241.724271	47.913116	1.000000	1.000000	1.000000	
1.798592	566.185407	607.733455	-33.314593	42.233455	1109.862118	1783.664723	53.791513	1.000000	1.000000	1.000000	
1.898473	565.295773	614.647682	-34.204227	49.147682	1169.929134	2415.494628	59.878408	1.000000	1.000000	1.000000	
2.002467	564.406139	621.643029	-35.093861	56.143029	1231.579046	3152.039663	66.208902	1.000000	1.000000	1.000000	
2.103618	563.516506	628.557255	-35.983494	63.057255	1294.811855	3976.217461	72.601855	1.000000	1.000000	1.000000	
2.200036	562.666392	635.471482	-36.833608	69.971482	1356.714669	4896.008324	79.074161	1.000000	1.000000	1.000000	
2.301923	562.101238	642.466829	-37.398762	76.966829	1398.667366	5923.892769	85.571959	1.000000	1.000000	1.000000	
2.398879	561.854790	648.966982	-37.645210	83.466982	1417.161803	6966.737078	91.563633	1.000000	1.000000	1.000000	
2.499427	561.647862	655.467135	-37.852138	89.967135	1432.784319	8094.085363	97.605685	1.000000	1.000000	1.000000	
2.599043	561.440934	661.967288	-38.059066	96.467288	1448.492473	9305.937626	103.703568	1.000000	1.000000	1.000000	
2.701845	561.234006	668.467441	-38.265994	102.967441	1464.286266	10602.293865	109.847986	1.000000	1.000000	1.000000	
2.799889	561.027078	674.886474	-38.472922	109.386474	1480.165697	11965.400638	115.955019	1.000000	1.000000	1.000000	
2.901990	560.984470	680.775107	-38.515530	115.275107	1483.446022	13288.350222	121.539279	1.000000	1.000000	1.000000	
2.998604	568.120582	680.351321	-31.379418	114.851321	984.667847	13190.825853	119.060882	1.000000	1.000000	1.000000	
3.099949	577.378294	679.151695	-22.121706	113.651695	489.369855	12916.707685	115.784617	1.000000	1.000000	1.000000	
3.202055	586.717127	677.382149	-12.782873	111.882149	163.401854	12517.615164	112.610022	1.000000	1.000000	1.000000	
3.298465	596.667479	674.551803	-2.832521	109.051803	8.023177	11892.295629	109.088582	1.000000	1.000000	1.000000	
3.399426	606.617831	670.702256	7.117831	105.202256	50.663513	11067.514763	105.442773	1.000000	1.000000	1.000000	
3.501913	616.568183	666.241190	17.068183	100.741190	291.322862	10148.787445	102.176858	1.000000	1.000000	1.000000	
3.619461	626.479015	661.249724	26.979015	95.749724	727.867239	9168.009715	99.478022	1.000000	1.000000	1.000000	
3.699406	636.389847	656.093938	36.889847	90.593938	1360.860800	8207.261659	97.816780	1.000000	1.000000	1.000000	
3.802113	646.177959	650.530472	46.677959	85.030472	2178.831847	7230.181214	97.000067	1.000000	1.000000	1.000000	
3.898834	656.005591	644.804766	56.505591	79.304766	3192.881809	6289.245945	97.376218	1.000000	1.000000	1.000000	
3.999450	663.755303	638.548660	64.255303	73.048660	4128.743966	5336.106753	97.287464	1.000000	1.000000	1.000000	
4.104630	663.055313	622.935295	63.555313	57.435295	4039.277831	3298.813148	85.662658	1.000000	1.000000	1.000000	
4.198431	661.827003	607.363530	62.327003	41.863530	3884.655341	1752.555182	75.081359	1.000000	1.000000	1.000000	
4.299486	659.379813	591.750166	59.879813	26.250166	3585.592059	689.071194	65.380909	1.000000	1.000000	1.000000	
4.402078	656.445904	576.259521	56.945904	10.759521	3242.835937	115.767287	57.953457	1.000000	1.000000	1.000000	
4.498466	653.106394	560.768876	53.606394	-4.731124	2873.645451	22.383535	53.814766	1.000000	1.000000	1.000000	
4.599629	648.832964	545.359351	49.332964	-20.140649	2433.741326	405.645741	53.285899	1.000000	1.000000	1.000000	
4.702122	643.908494	530.971106	44.408494	-34.528894	1972.114343	1192.244509	56.252634	1.000000	1.000000	1.000000	
4.798483	632.946941	526.096748	33.446941	-39.403252	1118.697882	1552.616289	51.684758	1.000000	1.000000	1.000000	
4.899503	621.579789	521.998229	22.079789	-43.501771	487.517062	1892.404054	48.784435	1.000000	1.000000	1.000000	
5.001888	610.010876	518.346911	10.510876	-47.153089	110.478510	2223.413815	48.310375	1.000000	1.000000	1.000000	
5.098553	598.157003	516.245192	-1.342997	-49.254808	1.803641	2426.036069	49.273113	1.000000	1.000000	1.000000	
5.199226	586.342650	516.957714	-13.157350	-48.542286	173.115851	2356.353531	50.293830	1.000000	1.000000	1.000000	
5.301918	574.651018	518.934876	-24.848982	-46.565124	617.471928	2168.310814	52.780515	1.000000	1.000000	1.000000	
5.421556	564.908345	522.089317	-34.591655	-43.410683	1196.582608	1884.487388	55.507387	1.000000	1.000000	1.000000	
5.500002	557.239432	525.447599	-42.260568	-40.052401	1785.955602	1604.194851	58.224999	1.000000	1.000000	1.000000	
5.602015	550.423319	529.251000	-49.076681	-36.249000	2408.520586	1313.989983	61.012380	1.000000	1.000000	1.000000	
5.698855	558.114714	534.778094	-41.385286	-30.721906	1712.741887	943.835480	51.541996	1.000000	1.000000	1.000000	
5.802102	565.724989	540.263589	-33.775011	-25.236411	1140.751373	636.876457	42.161924	1.000000	1.000000	1.000000	
5.901834	573.539104	545.749083	-25.960896	-19.750917	673.968135	390.098727	32.620038	1.000000	1.000000	1.000000	
5.998431	581.638179	551.153457	-17.861821	-14.346543	319.044666	205.823294	22.909997	1.000000	1.000000	1.000000	
6.121282	590.390373	556.557831	-9.109627	-8.942169	82.985298	79.962381	12.765096	1.000000	1.000000	1.000000	
6.198510	585.594083	561.658721	-13.905917	-3.841279	193.374516	14.755425	14.426709	1.000000	1.000000	1.000000	
6.302114	580.839394	566.720091	-18.660606	1.220091	348.218235	1.488621	18.700451	1.000000	1.000000	1.000000	
6.399333	575.920384	571.415380	-23.579616	5.915380	555.998310	34.991724	24.310287	1.000000	1.000000	1.000000	
6.501826	571.001374	576.110670	-28.498626	10.610670	812.171703	112.586318	30.409834	1.000000	1.000000	1.000000	
6.598352	566.001244	580.724840	-33.498756	15.224840	1122.166671	231.795743	36.796228	1.000000	1.000000	1.000000	
6.699397	561.001114	585.420129	-38.498886	19.920129	1482.164237	396.811553	43.347154	1.000000	1.000000	1.000000	
6.801851	556.000984	590.115419	-43.499016	24.615419	1892.164402	605.918853	49.980829	1.000000	1.000000	1.000000	
6.898557	555.194921	585.255296	-44.305079	19.755296	1962.940014	390.271726	48.509914	1.000000	1.000000	1.000000	
6.999394	554.349338	580.314053	-45.150662	14.814053	2038.582247	219.456175	47.518822	1.000000	1.000000	1.000000	
7.101898	553.503756	574.357770	-45.996244	8.857770	2115.654500	78.460097	46.841377	1.000000	1.000000	1.000000	
7.198662	552.697693	567.993808	-46.802307	2.493808	2190.455958	6.219076	46.868700	1.000000	1.000000	1.000000	
7.299852	552.667470	561.509205	-46.832530	-3.990795	2193.285862	15.926447	47.002259	1.000000	1.000000	1.000000	
7.402068	555.694847	554.535802	-43.805153	-10.964198	1918.891405	120.213641	45.156451	1.000000	1.000000	1.000000	
7.498482	558.641105	547.562399	-40.858895	-17.937601	1669.449341	321.757530	44.622941	1.000000	1.000000	1.000000	
7.600818	561.464642	540.588996	-38.035358	-24.911004	1446.688478	620.558114	45.466984	1.000000	1.000000	1.000000	
7.701875	564.452499	533.615593	-35.047501	-31.884407	1228.327329	1016.615392	47.380827	1.000000	1.000000	1.000000	
7.798508	569.962507	540.915688	-29.537493	-24.584312	872.463475	604.388386	38.429830	1.000000	1.000000	1.000000	
7.901050	575.472516	548.215783	-24.027484	-17.284217	577.320005	298.744152	29.598381	1.000000	1.000000	1.000000	
8.001821	581.024124	555.515878	-18.475876	-9.984122	341.357996	99.682690	21.000969	1.000000	1.000000	1.000000	
8.099503	586.575732	562.815973	-12.924268	-2.684027	167.036696	7.204001	13.200026	1.000000	1.000000	1.000000	
8.200554	592.044141	570.116068	-7.455859	4.616068	55.589839	21.308083	8.769146	1.000000	1.000000	1.000000	
8.314297	597.431429	577.416163	-2.068571	11.916163	4.278986	141.994938	12.094376	1.000000	1.000000	1.000000	
8.398568	602.818717	584.716258	3.318717	19.216258	11.013884	369.264565	19.500729	1.000000	1.000000	1.000000	
8.500537	608.206006	592.016353	8.706006	26.516353	75.794533	703.116965	27.908986	1.000000	1.000000	1.000000	
8.601761	619.930156	592.617867	20.430156	27.117867	417.391275	735.378699	33.952466	1.000000	1.000000	1.000000	
8.664172	4.000000	
8.698163	631.492066	593.219381	31.992066	27.719381	1023.492315	768.364071	42.330325	1.000000	1.000000	1.000000	
8.838934	643.053977	593.820895	43.553977	28.320895	1896.948900	802.073082	51.952112	1.000000	1.000000	1.000000	
8.898297	654.615887	594.422409	55.115887	28.922409	3037.761031	836.505731	62.243608	1.000000	1.000000	1.000000	
9.001697	666.136198	595.023923	66.636198	29.523923	4440.382844	871.662018	72.883776	1.000000	1.000000	1.000000	
9.100616	677.656508	595.625437	78.156508	30.125437	6108.439762	907.541943	83.761457	1.000000	1.000000	1.000000	
9.201979	689.218419	596.226951	89.718419	30.726951	8049.394626	944.145507	94.834277	1.000000	1.000000	1.000000	
9.299436	700.738729	596.828465	101.238729	31.328465	10249.280242	981.472708	105.975247	1.000000	1.000000	1.000000	
9.401040	712.055199	597.429979	112.555199	31.929979	12668.672909	1019.523548	116.996566	1.000000	1.000000	1.000000	
9.498819	707.408417	598.399814	107.908417	32.899814	11644.226416	1082.397736	112.812340	1.000000	1.000000	1.000000	
9.601958	702.068994	599.369648	102.568994	33.869648	10520.398574	1147.153083	108.016442	1.000000	1.000000	1.000000	
9.700929	695.912132	600.339483	96.412132	34.839483	9295.299125	1213.789589	102.513846	1.000000	1.000000	1.000000	
9.801839	686.782949	601.309318	87.282949	35.809318	7618.313193	1282.307253	94.343100	1.000000	1.000000	1.000000	
9.898246	676.800966	602.279153	77.300966	36.779153	5975.439414	1352.706077	85.604588	1.000000	1.000000	1.000000	
10.000837	666.941704	603.248988	67.441704	37.748988	4548.383420	1424.986060	77.287576	1.000000	1.000000	1.000000	
10.104264	657.082441	604.218822	57.582441	38.718822	3315.737544	1499.147202	69.389371	1.000000	1.000000	1.000000	
10.198189	647.304299	605.188657	47.804299	39.688657	2285.250974	1575.189503	62.132443	1.000000	1.000000	1.000000	
10.338515	638.460076	606.158492	38.960076	40.658492	1517.887530	1653.112963	56.311637	1.000000	1.000000	1.000000	
10.398392	629.738574	607.128327	30.238574	41.628327	914.371329	1732.917582	51.451812	1.000000	1.000000	1.000000	
10.501904	622.781722	607.016926	23.281722	41.516926	542.038588	1723.655148	47.599304	1.000000	1.000000	1.000000	
10.600337	615.947591	606.784885	16.447591	41.284885	270.523245	1704.441763	44.440578	1.000000	1.000000	1.000000	
10.701656	609.113460	606.552845	9.613460	41.052845	92.418604	1685.336063	42.163428	1.000000	1.000000	1.000000	
10.798228	602.279328	606.279204	2.779328	40.779204	7.724665	1662.943490	40.873808	1.000000	1.000000	1.000000	
10.900962	595.403597	606.047163	-4.096403	40.547163	16.780519	1644.072467	40.753564	1.000000	1.000000	1.000000	
11.001751	588.569466	605.815123	-10.930534	40.315123	119.476584	1625.309131	41.770632	1.000000	1.000000	1.000000	
11.098854	581.693734	605.583082	-17.806266	40.083082	317.063102	1606.653481	43.860194	1.000000	1.000000	1.000000	
11.200740	574.818003	605.351042	-24.681997	39.851042	609.200983	1588.105516	46.875436	1.000000	1.000000	1.000000	
11.303473	567.983872	605.119001	-31.516128	39.619001	993.266354	1569.665236	50.625405	1.000000	1.000000	1.000000	
11.399166	572.474641	599.378399	-27.025359	33.878399	730.370025	1147.745936	43.337235	1.000000	1.000000	1.000000	
11.498198	577.250371	592.048678	-22.249629	26.548678	495.046008	704.832280	34.639259	1.000000	1.000000	1.000000	
11.601383	582.026100	584.431916	-17.473900	18.931916	305.337176	358.417439	25.763436	1.000000	1.000000	1.000000	
11.697370	586.801830	576.775634	-12.698170	11.275634	161.243529	127.139926	16.981857	1.000000	1.000000	1.000000	
11.798158	591.577559	569.119352	-7.922441	3.619352	62.765068	13.099712	8.710039	1.000000	1.000000	1.000000	
12.021435	596.353289	561.463071	-3.146711	-4.036929	9.901792	16.296797	5.118456	1.000000	1.000000	1.000000	
12.026590	601.129018	553.806789	1.629018	-11.693211	2.653701	136.731181	11.806137	1.000000	1.000000	1.000000	
12.097432	605.904748	546.190027	6.404748	-19.309973	41.020795	372.875042	20.344430	1.000000	1.000000	1.000000	
12.200811	610.680477	538.533746	11.180477	-26.966254	125.003074	727.178870	29.192156	1.000000	1.000000	1.000000	
12.297543	617.650129	531.695699	18.150129	-33.804301	329.427177	1142.730755	38.368710	1.000000	1.000000	1.000000	
12.398291	624.619780	524.857653	25.119780	-40.642347	631.003364	1651.800402	47.778696	1.000000	1.000000	1.000000	
12.500826	631.589432	518.019606	32.089432	-47.480394	1029.731634	2254.387810	57.307237	1.000000	1.000000	1.000000	
12.597517	638.559083	511.142039	39.059083	-54.357961	1525.611988	2954.787870	66.935789	1.000000	1.000000	1.000000	
12.701002	645.528735	504.264473	46.028735	-61.235527	2118.644425	3749.789774	76.605706	1.000000	1.000000	1.000000	
12.800979	642.015239	505.970236	42.515239	-59.529764	1807.545520	3543.792752	73.152842	1.000000	1.000000	1.000000	
12.897326	638.501743	507.594880	39.001743	-57.905120	1521.135925	3353.002935	69.815033	1.000000	1.000000	1.000000	
12.998383	635.314806	508.445763	35.814806	-57.054237	1282.700364	3255.185918	67.363835	1.000000	1.000000	1.000000	
13.101197	632.169470	509.377767	32.669470	-56.122233	1067.294296	3149.705055	64.938427	1.000000	1.000000	1.000000	
13.197401	629.024134	511.655530	29.524134	-53.844470	871.674507	2899.226916	61.407666	1.000000	1.000000	1.000000	
13.298225	625.837198	515.075214	26.337198	-50.424786	693.648010	2542.659065	56.888550	1.000000	1.000000	1.000000	
13.400852	634.056534	513.493548	34.556534	-52.006452	1194.154013	2704.671042	62.440572	1.000000	1.000000	1.000000	
13.497239	642.275869	512.032522	42.775869	-53.467478	1829.774963	2858.771166	68.472959	1.000000	1.000000	1.000000	
13.605081	650.536804	510.450857	51.036804	-55.049143	2604.755393	3030.408185	75.067727	1.000000	1.000000	1.000000	
13.697421	658.756140	508.908711	59.256140	-56.591289	3511.290087	3202.573999	81.938172	1.000000	1.000000	1.000000	
13.801222	666.935955	507.327045	67.435955	-58.172955	4547.608030	3384.092669	89.060096	1.000000	1.000000	1.000000	
13.898480	667.516378	513.225882	68.016378	-52.274118	4626.227609	2732.583364	85.783512	1.000000	1.000000	1.000000	
14.001610	668.096800	519.124720	68.596800	-46.375280	4705.520969	2150.666621	82.802099	1.000000	1.000000	1.000000	
14.098192	668.057280	519.245360	68.557280	-46.254640	4700.100640	2139.491747	82.701828	1.000000	1.000000	1.000000	
14.198748	668.598182	525.183717	69.098182	-40.316283	4774.558821	1625.402676	79.999759	1.000000	1.000000	1.000000	
14.300748	669.139085	531.122074	69.639085	-34.377926	4849.602154	1181.841780	77.662371	1.000000	1.000000	1.000000	
14.397396	669.719507	537.060431	70.219507	-28.439569	4930.779226	808.809057	75.760071	1.000000	1.000000	1.000000	
14.498380	670.341530	542.998789	70.841530	-22.501211	5018.522363	506.304507	74.329179	1.000000	1.000000	1.000000	
14.600796	670.921952	548.937146	71.421952	-16.562854	5101.095286	274.328132	73.317279	1.000000	1.000000	1.000000	
14.697306	671.502375	554.875503	72.002375	-10.624497	5184.341991	112.879931	72.782016	1.000000	1.000000	1.000000	
14.797683	664.121721	555.106658	64.621721	-10.393342	4175.966798	108.021557	65.452184	1.000000	1.000000	1.000000	
14.900590	656.782667	555.298293	57.282667	-10.201707	3281.303903	104.074829	58.184008	1.000000	1.000000	1.000000	
14.997210	649.443613	555.489928	49.943613	-10.010072	2494.364438	100.201549	50.936882	1.000000	1.000000	1.000000	
15.097543	642.146158	555.721082	42.646158	-9.778918	1818.694833	95.627229	43.752966	1.000000	1.000000	1.000000	
15.197300	634.765504	555.952237	35.265504	-9.547763	1243.655799	91.159775	36.535128	1.000000	1.000000	1.000000	
15.297250	627.384850	556.183392	27.884850	-9.316608	777.564875	86.799185	29.400069	1.000000	1.000000	1.000000	
15.400139	619.883556	556.414547	20.383556	-9.085453	415.489362	82.545460	22.316694	1.000000	1.000000	1.000000	
15.500832	612.382262	556.645702	12.882262	-8.854298	165.952676	78.398601	15.631739	1.000000	1.000000	1.000000	
15.597854	604.758248	556.876856	5.258248	-8.623144	27.649172	74.358607	10.099890	1.000000	1.000000	1.000000	
15.697480	597.173754	557.108011	-2.326246	-8.391989	5.411421	70.425477	8.708438	1.000000	1.000000	1.000000	
15.797424	590.783008	555.080356	-8.716992	-10.419644	75.985949	108.568975	13.585099	1.000000	1.000000	1.000000	
15.900589	584.311142	553.052702	-15.188858	-12.447298	230.701400	154.935240	19.637633	1.000000	1.000000	1.000000	
15.999156	577.920396	551.025047	-21.579604	-14.474953	465.679290	209.524273	25.984679	1.000000	1.000000	1.000000	
16.103174	571.529651	548.876752	-27.970349	-16.623248	782.340444	276.332378	32.537253	1.000000	1.000000	1.000000	
16.208030	565.097305	546.767977	-34.402695	-18.732023	1183.545436	350.888683	39.171854	1.000000	1.000000	1.000000	
16.300645	565.097305	546.728457	-34.402695	-18.771543	1183.545436	352.370824	39.190768	1.000000	1.000000	1.000000	
16.398973	560.040119	540.649963	-39.459881	-24.850037	1557.082233	617.524352	46.632677	1.000000	1.000000	1.000000	
16.497423	554.982933	534.610988	-44.517067	-30.889012	1981.769293	954.131038	54.183949	1.000000	1.000000	1.000000	
16.598149	549.884146	528.572014	-49.615854	-36.927986	2461.732925	1363.676146	61.849891	1.000000	1.000000	1.000000	
16.700460	544.785360	522.533040	-54.714640	-42.966960	2993.691796	1846.159677	69.569041	1.000000	1.000000	1.000000	
16.820955	539.686574	516.494065	-59.813426	-49.005935	3577.645908	2401.581630	77.325465	1.000000	1.000000	1.000000	
16.823398	3.000000	
